-1
3.22091870
3.26490690
3.21114350
3.31378320
-1
2.72238520
2.74682310
2.81524920
2.88367530
3.01075270
3.14760490
3.22091870
3.26490690
3.21114350
3.31378320
-1
1.31964800
1.31476040
1.31964800
1.31964800
1.31964800
1.32942330
1.30009770
1.30009770
1.31476040
1.30498530
1.29521010
1.30009770
1.35386120
1.31476040
1.33919850
1.37829910
1.42717490
1.46138800
1.48093830
1.51515150
1.56891490
1.56402730
1.56891490
1.56891490
1.61290310
1.59335280
1.59335280
1.61290310
1.62267830
1.61290310
1.61779070
1.64711640
1.64222880
1.62267830
1.62267830
1.64222880
1.63245340
1.64711640
1.62267830
1.64222880
1.64711640
1.66666670
1.63245340
1.64711640
1.63734100
1.62756590
1.64222880
1.62267830
1.64711640
1.59824040
1.61779070
1.62267830
1.60312800
1.61290310
1.58846520
1.57380250
1.57869010
1.57380250
1.54936460
1.55913970
1.54447700
1.55425210
1.52981420
1.52492670
1.52981420
1.52492670
1.50537630
1.50537630
1.51026390
1.50048880
1.49560120
1.49071360
1.48582600
1.48582600
1.49071360
1.46138800
1.47605070
1.48093830
1.45161280
1.46138800
1.46138800
1.44183770
1.44183770
1.44672520
1.43206250
1.43695010
1.44183770
1.44183770
1.42228730
1.43206250
1.42228730
1.45161280
1.41739980
1.41739980
1.41251220
1.44183770
1.42717490
1.45161280
1.48093830
1.51515150
1.56891490
1.60312800
1.64222880
1.65689160
1.69599220
1.71065500
1.71065500
1.70576740
1.72043010
1.72531770
1.73020530
1.72531770
1.77419350
1.75464320
1.75464320
1.74486800
1.78396870
1.75953080
1.75464320
1.77908110
1.76930590
1.76441840
1.77908110
1.75464320
1.75953080
1.76441840
1.75953080
1.76441840
1.77908110
1.73998050
1.74486800
1.73998050
1.72531770
1.72531770
1.72043010
1.69110470
1.70576740
1.69110470
1.68132950
1.69110470
1.67155430
1.66666670
1.66177920
1.67155430
1.65689160
1.65689160
1.67644190
1.68621710
1.64711640
1.62267830
1.64711640
1.61290310
1.62756590
1.60801550
1.59335280
1.58846520
1.60312800
1.57869010
1.58846520
1.57380250
1.58846520
1.56891490
1.56402730
1.56891490
1.57869010
1.54447700
1.53958940
1.54936460
1.57869010
1.53958940
1.55425210
1.57380250
1.61290310
1.63245340
1.67644190
1.75953080
1.78396870
1.80840670
1.84750740
1.85239490
1.87194530
1.87194530
1.91104590
1.90127070
1.90127070
1.91593350
1.91593350
1.92082110
1.92082110
1.93548380
1.92570870
1.93548380
1.91104590
1.89638320
1.92082110
1.93548380
1.90127070
1.90127070
1.93059620
1.95014660
1.89638320
1.88660800
1.88660800
1.88172040
1.86705770
1.85728250
1.84261980
1.84261980
1.83284460
1.82306950
1.80351910
1.82306950
1.79863150
1.75464320
1.75953080
1.74975560
1.73998050
1.72043010
1.73020530
1.72043010
1.70576740
1.72043010
1.69110470
1.68621710
1.66666670
1.66666670
1.66666670
1.64711640
1.66177920
1.61779070
1.61290310
1.60312800
1.62267830
1.59824040
1.58357760
1.61290310
1.59335280
1.56891490
1.56891490
1.56891490
1.56891490
1.54447700
1.54447700
1.53470180
1.54936460
1.51515150
1.52492670
1.52981420
1.55425210
1.58357760
1.63245340
1.66177920
1.74486800
1.81329430
1.84261980
1.91104590
1.93059620
1.95014660
1.98435970
2.01368520
2.02834800
2.02346040
2.06744860
2.04789830
2.07233620
2.09677410
2.10654930
2.10654930
2.09677410
2.09677410
2.09188650
2.11143710
2.08699890
2.07233620
2.09188650
2.07722380
2.07233620
2.07233620
2.09188650
2.06256100
2.04789830
2.04301070
2.04301070
2.02834800
2.00391010
1.96969700
1.97947220
1.95992180
1.92570870
1.89638320
1.91104590
1.89638320
1.85728250
1.87194530
1.82306950
1.81329430
1.77908110
1.77419350
1.76930590
1.75953080
1.73998050
1.73020530
1.72043010
1.70576740
1.67155430
1.66177920
1.67644190
1.65689160
1.62756590
1.60801550
1.59824040
1.62267830
1.56891490
1.56402730
1.56891490
1.55913970
1.53470180
1.53958940
1.53958940
1.52492670
1.49071360
1.52003910
1.49071360
1.48093830
1.47605070
1.46138800
1.45650040
1.43206250
1.43206250
1.44672520
1.46627560
1.50537630
1.55425210
1.61290310
1.70087980
1.75464320
1.80840670
1.85239490
1.91104590
1.94037140
1.97947220
1.99413490
2.01857280
2.04789830
2.04301070
2.05767350
2.07233620
2.09188650
2.07722380
2.08211140
2.08211140
2.14565010
2.06744860
2.07233620
2.06256100
2.05767350
2.03812310
2.04789830
2.08699890
2.05767350
2.03812310
2.02834800
2.02834800
1.98924730
1.98435970
1.97947220
1.95014660
1.94037140
1.89149560
1.88660800
1.88660800
1.88172040
1.81818190
1.80351910
-1
1.55425210
1.53470180
1.51515150
1.50537630
1.47116320
-1
1.69110470
1.66177920
1.64222880
1.62267830
1.61290310
1.55425210
1.53470180
1.51515150
1.50537630
1.47116320
1.51515150
1.45161280
1.47605070
1.42228730
1.42228730
1.42228730
1.38807430
1.39784940
1.38318670
1.36363640
1.34897360
1.33431090
1.33919850
1.31476040
1.30987290
1.29521010
1.28543500
1.27565980
1.26099710
1.25610950
1.25610950
1.24144670
1.23655920
1.23167160
1.21700880
1.21700880
1.20234600
1.20234600
1.18768320
1.19257080
1.18768320
1.18768320
1.16813290
1.21700880
1.21700880
1.25610950
1.32942330
1.40762460
1.52003910
1.67155430
1.74486800
1.85728250
1.92082110
1.99902250
2.03812310
2.08211140
2.05767350
2.05767350
2.09677410
2.08211140
2.08699890
2.09188650
2.10654930
2.10654930
2.06256100
2.06744860
2.04301070
2.02834800
1.98924730
1.95503430
1.95503430
1.93548380
1.92082110
1.91104590
1.91593350
1.88660800
1.85239490
1.85239490
1.82306950
1.78885630
1.77419350
1.73509290
1.71554260
1.68132950
1.65200400
1.63734100
1.59335280
1.57869010
1.55425210
1.53470180
1.52981420
1.50048880
1.49071360
1.47605070
1.47116320
1.46138800
1.42228730
1.44672520
1.41739980
1.43206250
1.40273700
1.39784940
1.36363640
1.35386120
1.34897360
1.35386120
1.33431090
1.31964800
1.32942330
1.30987290
1.31476040
1.30498530
1.29521010
1.29032250
1.28543500
1.27565980
1.28543500
1.25122190
1.27565980
1.23655920
1.26099710
1.24633430
1.27077220
1.30987290
1.39784940
1.49071360
1.62756590
1.69599220
1.81818190
1.89638320
1.98924730
2.01368520
2.02834800
2.04789830
2.05767350
2.03323550
2.03812310
2.03812310
2.05278590
2.04301070
2.03323550
2.03812310
2.01368520
1.98435970
1.94525900
1.94525900
1.91104590
1.88172040
1.90127070
1.91104590
1.87683280
1.85728250
1.85239490
1.86217010
1.82306950
1.79863150
1.76930590
1.73509290
1.73020530
1.71065500
1.65689160
1.63734100
1.60312800
1.58846520
1.56891490
1.54936460
1.52492670
1.49560120
1.49071360
1.46627560
1.47116320
1.45161280
1.42717490
1.43206250
1.42717490
1.39296190
1.39784940
1.39296190
1.38807430
1.35874880
1.34897360
1.35874880
1.33431090
1.32453560
1.32453560
1.32942330
1.31476040
1.31964800
1.28543500
1.31476040
1.29521010
1.27565980
1.28054740
1.25122190
1.24633430
1.25122190
1.25610950
1.25610950
1.26588460
1.34897360
1.41251220
1.52981420
1.61779070
1.74486800
1.86217010
1.97947220
2.05278590
2.08699890
2.10654930
2.13098740
2.11632470
2.10654930
2.13098740
2.15053770
2.15053770
2.11632470
2.14565010
2.11632470
2.09677410
2.09677410
2.05278590
2.01857280
2.00391010
1.97458460
1.96480940
1.94525900
1.97947220
1.91593350
1.89638320
1.91593350
1.88172040
1.84261980
1.82306950
1.81329430
1.76441840
1.73998050
1.69599220
1.66666670
1.66666670
1.60312800
1.62756590
1.56891490
1.54447700
1.51026390
1.51026390
1.49560120
1.48093830
1.44672520
1.44672520
1.44183770
1.43206250
1.40762460
1.42228730
1.38807430
1.38318670
1.36852400
1.36852400
1.34408610
1.32942330
1.32453560
1.30498530
1.30009770
1.30009770
1.27565980
1.28054740
1.26588460
1.26099710
1.25122190
1.23655920
1.24144670
1.22189640
1.21700880
1.22678400
1.21700880
1.21212120
1.21212120
1.18768320
1.20234600
1.18279560
1.18279560
1.18768320
1.18279560
1.21700880
1.25122190
1.34408610
1.43206250
1.54936460
1.67155430
1.83284460
1.91593350
2.01857280
2.05278590
2.12121220
2.15542530
2.16520050
2.12609980
2.14565010
2.15053770
2.15053770
2.17986320
2.16520050
2.13587500
2.15053770
2.11143710
2.10166170
2.06256100
2.02346040
2.02346040
2.01368520
1.99902250
1.97458460
1.95992180
1.97947220
1.93059620
1.91593350
1.90127070
1.88172040
1.84261980
1.80351910
1.80351910
1.76441840
1.72043010
1.68132950
1.64711640
1.64711640
1.60801550
1.56891490
1.58357760
1.54447700
1.53470180
1.50048880
1.50537630
1.47605070
1.46138800
1.46627560
1.43206250
1.43206250
1.42228730
1.40273700
1.40762460
1.38807430
1.40273700
1.37341150
1.35386120
1.36363640
1.35874880
1.33431090
1.33431090
1.31476040
1.32453560
1.29521010
1.28543500
1.29032250
1.27077220
1.26099710
1.24144670
1.24633430
1.25122190
1.24144670
1.27077220
1.33919850
1.40762460
1.49560120
1.61779070
1.74486800
1.85239490
1.92082110
1.99413490
2.04789830
2.05767350
2.05278590
2.03812310
2.08211140
2.04789830
2.06744860
2.06744860
2.05767350
2.02834800
2.00879760
2.03812310
1.97458460
1.96969700
1.92570870
1.91104590
1.90615830
1.88660800
1.88172040
1.86705770
1.85728250
1.84750740
1.84750740
1.81329430
1.79374380
1.77419350
1.74486800
1.72531770
1.68621710
1.66666670
1.60801550
1.62756590
1.58357760
1.56891490
1.52003910
1.52003910
1.49071360
1.50537630
1.44672520
1.49071360
1.44672520
1.42228730
1.40273700
1.42717490
1.38807430
1.38318670
1.36852400
1.35874880
1.35386120
1.32942330
1.32453560
1.31476040
1.30987290
1.29032250
1.30009770
1.29032250
1.28543500
1.26588460
1.28054740
1.26588460
1.25610950
1.23655920
1.23655920
1.21700880
1.24633430
1.20723350
1.21700880
1.22189640
1.26588460
1.30987290
1.40273700
1.51026390
1.66666670
1.75464320
1.87194530
1.97947220
2.01857280
2.06744860
2.08211140
2.09677410
2.11632470
2.10166170
2.10166170
2.12609980
2.13098740
-1
1.42717490
1.41739980
1.40273700
1.44672520
1.47116320
-1
1.46627560
1.47116320
1.42717490
1.42228730
1.42717490
1.41739980
1.40273700
1.44672520
1.47116320
1.50048880
1.55425210
1.64711640
1.70087980
1.78396870
1.83773220
1.92082110
1.95992180
1.99902250
2.00391010
2.03812310
2.04789830
2.03323550
2.03812310
2.07722380
2.05278590
2.07233620
2.09677410
2.04301070
2.04301070
2.02346040
2.01368520
1.97458460
2.00879760
1.99413490
1.95014660
1.96969700
1.96480940
1.93548380
1.91104590
1.92570870
1.91104590
1.87683280
1.86217010
1.87194530
1.83284460
1.79863150
1.77908110
1.76930590
1.73020530
1.73509290
1.68132950
1.68132950
1.67644190
1.64222880
1.61290310
1.62756590
1.59824040
1.57869010
1.56891490
1.54936460
1.54936460
1.56402730
1.51515150
1.52003910
1.53958940
1.50048880
1.48093830
1.45650040
1.48582600
1.45161280
1.43695010
1.45161280
1.42228730
1.41251220
1.42228730
1.39296190
1.40273700
1.39296190
1.36852400
1.37341150
1.35874880
1.36363640
1.33919850
1.35386120
1.34408610
1.31964800
1.33431090
1.33919850
1.33919850
1.34897360
1.39296190
1.45650040
1.52981420
1.59335280
1.70576740
1.81329430
1.86217010
1.92082110
1.97458460
2.00879760
2.03323550
2.04301070
2.05278590
2.07722380
2.06744860
2.06744860
2.11143710
2.10166170
2.10166170
2.10654930
2.06744860
2.07233620
2.02834800
2.03323550
2.00391010
1.99413490
1.98435970
1.98924730
1.99413490
1.95503430
1.94037140
1.91104590
1.91104590
1.87683280
1.87683280
1.82795700
1.79863150
1.79863150
1.77908110
1.74975560
1.70087980
1.71065500
1.68132950
1.65200400
1.65200400
1.64222880
1.61290310
1.59335280
1.59824040
1.56891490
1.54447700
1.52492670
1.52492670
1.52492670
1.51026390
1.49560120
1.49560120
1.48093830
1.47116320
1.47116320
1.46627560
1.45650040
1.46627560
1.43695010
1.41739980
1.41251220
1.39784940
1.38807430
1.38318670
1.38807430
1.38318670
1.36363640
1.37341150
1.34897360
1.35386120
1.35874880
1.36363640
1.39784940
1.45650040
1.52981420
1.61290310
1.69599220
1.79863150
1.86217010
1.97458460
1.99413490
2.01368520
2.02834800
2.06256100
2.08211140
2.03812310
2.01857280
2.02834800
2.03323550
2.02346040
1.99902250
2.00879760
1.99413490
1.94525900
1.94037140
1.91104590
1.91593350
1.89149560
1.87683280
1.88660800
1.87683280
1.86217010
1.83284460
1.81329430
1.81818190
1.78396870
1.74975560
1.74486800
1.70087980
1.69110470
1.65200400
1.64711640
1.62267830
1.58846520
1.56891490
1.55425210
1.53470180
1.52981420
1.49071360
1.50048880
1.48093830
1.44183770
1.44183770
1.43695010
1.41251220
1.40273700
1.37341150
1.37341150
1.34897360
1.34897360
1.35386120
1.32942330
1.31964800
1.34408610
1.31476040
1.29521010
1.31476040
1.28054740
1.26588460
1.26099710
1.24144670
1.22678400
1.24633430
1.21700880
1.23167160
1.26099710
1.30498530
1.36363640
1.45161280
1.51026390
1.57380250
1.65689160
1.70087980
1.70576740
1.73020530
1.75953080
1.77419350
1.74486800
1.73998050
1.75953080
1.75464320
1.75464320
1.75464320
1.74975560
1.73998050
1.71554260
1.70087980
1.68132950
1.65200400
1.61779070
1.60312800
1.62267830
1.59824040
1.57380250
1.56891490
1.55913970
1.53470180
1.52003910
1.52003910
1.48582600
1.45161280
1.43206250
1.42717490
1.40273700
1.40273700
1.36852400
1.34897360
1.33431090
1.29521010
1.29032250
1.27565980
1.25610950
1.23655920
1.23167160
1.23167160
1.21212120
1.19257080
1.18768320
1.18768320
1.19257080
1.17790810
1.14858260
1.13880740
1.13391980
1.12903230
1.12414470
1.10948190
1.12414470
1.09481920
1.07526890
1.08993160
1.08504400
1.07526890
1.07038130
1.08015640
1.07038130
1.06060610
1.05083080
1.05571850
1.04105570
1.04105570
1.02639290
1.04594330
1.06549370
1.09970680
1.13391980
1.19257080
1.21212120
1.24633430
1.28054740
1.31476040
1.32453560
1.34408610
1.36852400
1.36363640
1.38318670
1.39296190
1.38807430
1.37829910
1.38807430
1.39784940
1.38318670
1.39784940
1.40273700
1.38807430
1.38318670
1.37341150
1.35874880
1.37829910
1.38318670
1.36363640
1.36363640
1.34897360
1.38807430
1.34897360
1.38318670
1.33431090
1.34408610
1.33431090
1.33431090
1.29521010
1.29521010
1.29521010
1.29521010
1.28054740
1.27077220
1.29032250
1.26099710
1.28543500
1.24144670
1.25610950
1.25610950
1.24144670
1.26588460
1.23655920
1.23167160
1.23167160
1.22189640
1.25610950
1.22189640
1.24144670
1.22189640
1.22189640
1.23167160
1.21212120
1.22189640
1.20723350
1.24633430
1.20723350
1.20234600
1.20234600
1.20234600
1.20234600
1.20723350
1.21212120
1.22189640
1.24144670
1.23655920
1.28543500
1.28543500
1.30498530
1.33919850
1.35386120
1.34408610
1.35386120
1.36363640
1.36363640
1.36852400
1.37829910
1.37829910
1.39784940
1.40273700
1.39296190
1.42228730
1.40273700
1.39784940
1.39296190
1.38318670
1.38318670
1.39296190
1.38318670
1.37341150
1.39296190
1.38318670
1.37829910
1.37341150
1.37829910
1.37341150
1.37829910
1.35386120
1.37829910
1.34897360
1.34897360
1.37829910
1.35874880
1.33919850
1.33431090
1.33431090
1.33919850
1.33919850
1.32942330
1.32942330
1.34408610
1.32453560
1.33431090
1.31476040
1.34897360
1.30498530
1.30987290
1.32942330
1.30009770
1.30987290
1.30009770
1.30498530
1.31964800
1.29521010
1.29521010
1.31964800
-1
1.42717490
1.41251220
1.43206250
1.38318670
1.37829910
-1
1.45650040
1.43695010
1.43206250
1.42717490
1.41251220
1.42717490
1.41251220
1.43206250
1.38318670
1.37829910
1.38807430
1.35386120
1.34897360
1.36363640
1.34408610
1.34408610
1.34897360
1.35386120
1.35386120
1.36363640
1.37829910
1.43695010
1.49560120
1.56891490
1.64711640
1.73020530
1.75953080
1.83284460
1.85728250
1.86705770
1.93059620
1.91104590
1.88660800
1.89149560
1.93059620
1.93059620
1.94525900
1.94525900
1.94525900
1.92570870
1.92570870
1.89149560
1.90615830
1.88172040
1.86705770
1.85728250
1.87683280
1.87194530
1.82795700
1.83284460
1.83284460
1.79863150
1.78396870
1.77908110
1.76441840
1.76441840
1.71065500
1.70576740
1.68621710
1.65200400
1.62756590
1.61290310
1.59824040
1.59824040
1.55913970
1.55913970
1.55425210
1.54936460
1.53470180
1.52981420
1.51026390
1.50048880
1.48582600
1.47605070
1.48093830
1.46138800
1.44183770
1.43206250
1.44672520
1.42717490
1.41739980
1.44183770
1.40762460
1.39784940
1.41739980
1.41251220
1.39296190
1.38318670
1.39296190
1.37829910
1.37341150
1.36363640
1.34408610
1.36363640
1.37341150
1.35386120
1.36852400
1.41739980
1.47605070
1.50537630
1.55913970
1.64222880
1.69110470
1.73509290
1.75464320
1.79374380
1.80351910
1.80351910
1.82306950
1.84750740
1.81329430
1.81329430
1.83773220
1.85239490
1.81329430
1.80351910
1.83773220
1.82306950
1.78396870
1.80351910
1.79374380
1.78396870
1.75953080
1.76930590
1.74486800
1.76441840
1.73020530
1.76441840
1.72531770
1.71554260
1.69110470
1.67155430
1.70087980
1.65200400
1.65200400
1.60801550
1.59824040
1.57380250
1.55425210
1.54447700
1.53470180
1.52981420
1.52492670
1.49560120
1.50048880
1.48093830
1.49071360
1.46138800
1.46138800
1.46627560
1.46627560
1.45650040
1.47605070
1.45161280
1.43206250
1.42228730
1.40762460
1.41739980
1.40273700
1.39296190
1.39784940
1.39784940
1.37829910
1.36363640
1.38318670
1.37341150
1.36363640
1.35386120
1.34897360
1.36363640
