-1
1.720
1.716
1.725
1.716
1.701
1.706
-1
1.740
1.740
1.740
1.735
1.735
1.735
1.730
1.730
1.730
1.725
1.725
1.720
1.720
1.716
1.725
1.716
1.701
1.706
-1
1.740
1.740
1.740
1.735
1.735
1.735
1.730
1.730
1.730
1.725
1.725
1.720
1.720
1.716
1.725
1.716
1.701
1.706
1.549
1.554
1.530
1.525
1.520
1.530
1.520
1.515
1.515
1.515
1.505
1.500
1.500
1.496
1.510
1.496
1.496
1.496
1.496
1.486
1.486
1.486
1.486
1.486
1.481
1.481
1.481
1.491
1.471
1.471
1.471
1.481
1.476
1.476
1.471
1.471
1.500
1.466
1.471
1.466
1.476
1.505
1.471
1.466
1.471
1.491
1.466
1.466
1.466
1.486
1.471
1.466
1.466
1.481
1.466
1.466
1.466
1.471
1.486
1.466
1.461
1.461
1.471
1.461
1.466
1.461
1.466
1.491
1.457
1.457
1.457
1.457
1.457
1.457
1.452
1.461
1.457
1.452
1.452
1.452
1.457
1.452
1.452
1.457
1.452
1.476
1.447
1.452
1.447
1.447
1.481
1.452
1.447
1.447
1.457
1.447
1.447
1.447
1.452
1.476
1.452
1.452
1.452
1.466
1.457
1.452
1.452
1.461
1.457
1.457
1.452
1.457
1.481
1.461
1.461
1.457
1.461
1.457
1.457
1.457
1.457
1.476
1.461
1.461
1.461
1.466
1.466
1.457
1.461
1.457
1.466
1.461
1.461
1.466
1.476
1.461
1.461
1.457
1.461
1.481
1.461
1.466
1.461
1.461
1.486
1.457
1.466
1.466
1.476
1.466
1.476
1.481
1.496
1.461
1.452
1.461
1.471
1.457
1.461
1.457
1.457
1.452
1.447
1.452
1.452
1.457
1.481
1.452
1.447
1.447
1.457
1.447
1.442
1.447
1.447
1.461
1.442
1.442
1.442
1.442
1.476
1.442
1.442
1.447
1.452
1.442
1.442
1.437
1.437
1.447
1.442
1.447
1.442
1.442
1.447
1.432
1.437
1.437
1.442
1.442
1.442
1.437
1.437
1.452
1.437
1.437
1.437
1.442
1.442
1.437
1.437
1.432
1.447
1.432
1.437
1.437
1.442
1.437
1.437
1.432
1.437
1.437
1.437
1.437
1.437
1.442
1.437
1.432
1.432
1.432
1.461
1.437
1.437
1.442
1.466
1.432
1.432
1.437
1.437
1.447
1.437
1.442
1.432
1.442
1.432
1.432
1.432
1.437
1.442
1.437
1.437
1.437
1.442
1.437
1.432
1.447
1.461
1.452
1.452
1.452
1.452
1.447
1.447
1.452
1.476
1.452
1.452
1.466
1.471
1.437
1.442
1.437
1.447
1.442
1.442
1.447
1.452
1.442
1.437
1.437
1.442
1.442
1.437
1.442
1.437
1.432
1.432
1.427
1.457
1.437
1.432
1.437
1.437
1.447
1.432
1.432
1.432
1.437
1.442
1.437
1.437
1.437
1.447
1.437
1.437
1.442
1.447
1.457
1.457
1.452
1.457
1.461
1.461
1.481
1.471
1.481
1.486
1.496
1.491
1.496
1.500
1.510
1.510
1.520
1.525
1.535
1.554
1.540
1.540
1.549
1.554
1.584
1.559
1.569
1.569
1.579
1.574
1.579
1.574
1.584
1.593
1.588
1.584
1.584
1.593
1.584
1.584
1.579
1.584
1.608
1.584
1.579
1.574
1.574
1.588
1.564
1.564
1.564
1.564
1.569
1.554
1.549
1.544
1.544
1.554
1.540
1.540
1.535
1.535
1.535
1.525
1.520
1.520
1.520
1.540
1.515
1.510
1.505
1.515
1.500
1.500
1.500
1.500
1.530
1.500
1.496
1.491
1.496
1.520
1.491
1.491
1.496
1.491
1.520
1.486
1.500
1.486
1.491
1.515
1.491
1.491
1.491
1.500
1.486
1.486
1.486
1.496
1.491
1.491
1.491
1.500
1.486
1.481
1.486
1.486
1.520
1.491
1.486
1.505
1.505
1.486
1.496
1.491
1.496
1.525
1.496
1.505
1.515
1.486
1.491
1.486
1.491
1.491
1.491
1.486
1.520
1.486
1.486
1.481
1.491
1.505
1.505
1.525
1.505
1.496
1.496
1.491
1.491
1.510
1.505
1.491
1.481
1.491
1.491
1.496
1.510
1.520
1.520
1.515
1.520
1.500
1.500
1.505
1.515
1.505
1.505
1.510
1.496
1.496
1.496
1.525
1.500
1.500
1.505
1.515
1.500
1.500
1.505
1.530
1.496
1.500
1.530
1.515
1.510
1.510
1.544
1.530
1.525
1.544
1.520
1.530
1.520
1.510
1.505
1.505
1.515
1.505
1.520
1.520
1.520
1.520
1.520
1.520
1.525
1.520
1.510
1.530
1.520
1.515
1.505
1.500
1.515
1.505
1.491
1.491
1.486
1.500
1.476
1.476
1.491
1.510
1.496
1.500
1.500
1.491
1.481
1.476
1.486
1.481
1.481
1.471
1.471
1.471
1.471
1.466
1.466
1.486
1.466
1.466
1.466
1.500
1.471
1.466
1.466
-1
1.544
1.579
1.549
1.544
1.544
1.544
1.554
1.544
1.549
1.559
1.549
1.549
1.549
1.535
1.544
1.535
1.535
-1
1.535
1.544
1.579
1.549
1.544
1.544
1.544
1.554
1.544
1.549
1.559
1.549
1.549
1.549
1.535
1.544
1.535
1.535
1.593
1.564
1.559
1.559
1.549
1.535
1.549
1.574
1.540
1.530
1.525
1.530
1.525
1.520
1.535
1.525
1.554
1.540
1.530
1.520
1.530
1.544
1.520
1.544
1.569
1.505
1.525
1.564
1.530
1.515
1.530
1.559
1.535
1.549
1.549
1.540
1.525
1.520
1.530
1.515
1.535
1.535
1.535
1.535
1.540
1.525
1.525
1.515
1.515
1.530
1.530
1.530
1.530
1.530
1.520
1.515
1.525
1.510
1.549
1.544
1.544
1.530
1.520
1.515
1.520
1.525
1.510
1.520
1.520
1.535
1.525
1.535
1.564
1.520
1.515
1.544
1.530
1.530
1.549
1.525
1.535
1.569
1.554
1.559
1.530
1.530
1.540
1.525
1.525
1.525
1.515
1.515
1.540
1.554
1.510
1.510
1.520
1.500
1.500
1.496
1.559
1.515
1.535
1.540
1.530
1.510
1.520
1.515
1.520
1.525
1.520
1.540
1.540
1.515
1.525
1.515
1.525
1.525
1.515
1.520
1.544
1.525
1.530
1.520
1.535
1.520
1.525
1.535
1.535
1.520
1.520
1.515
1.520
1.535
1.520
1.525
1.535
1.515
1.540
1.535
1.559
1.549
1.535
1.559
1.559
1.549
1.559
1.569
1.569
1.564
1.603
1.608
1.623
1.613
1.608
1.623
1.652
1.613
1.632
1.672
1.662
1.676
1.652
1.657
1.662
1.667
1.657
1.672
1.662
1.686
1.667
1.676
1.652
1.652
1.652
1.657
1.667
1.667
1.667
1.672
1.686
1.676
1.662
1.657
1.662
1.657
1.642
1.691
1.662
1.676
1.628
1.662
1.642
1.642
1.637
1.632
1.632
1.623
1.623
1.613
1.642
1.637
1.632
1.613
1.623
1.608
1.608
1.603
1.603
1.618
1.598
1.603
1.584
1.569
1.574
1.569
1.579
1.579
1.564
1.579
1.579
1.564
1.554
1.564
1.574
1.569
1.569
1.579
1.574
1.574
1.559
1.569
1.569
1.574
1.569
1.574
1.579
1.569
1.584
1.569
1.588
1.584
1.579
1.608
1.574
1.574
1.588
1.584
1.588
1.588
1.574
1.584
1.564
1.549
1.579
1.569
1.564
1.569
1.569
1.603
1.584
1.584
1.603
1.554
1.554
1.564
1.559
1.564
1.564
1.574
1.549
1.544
1.574
1.540
1.554
1.554
1.564
1.569
1.554
1.544
1.579
1.564
1.569
1.584
1.559
1.559
1.569
1.584
1.564
1.554
1.574
1.549
1.554
1.559
1.569
1.564
1.569
1.549
1.554
1.559
1.593
1.579
1.559
1.574
1.579
1.569
1.559
1.593
1.564
1.559
1.564
1.569
1.574
1.559
1.564
1.549
1.554
1.569
1.564
1.569
1.584
1.569
1.540
1.544
1.559
1.569
1.564
1.608
1.574
1.574
1.559
1.549
1.544
1.559
1.544
1.554
1.544
1.554
1.540
1.549
1.574
1.559
1.554
1.559
1.559
1.544
1.540
1.549
1.554
1.535
1.540
1.569
1.549
1.544
1.559
1.535
1.540
1.540
1.544
1.515
1.544
1.549
1.544
1.544
1.559
1.530
1.540
1.540
1.559
1.540
1.540
1.559
1.530
1.520
1.525
1.540
1.544
1.530
1.549
1.525
1.549
1.535
1.559
1.520
1.540
1.535
1.540
1.535
1.544
1.554
1.520
1.525
1.525
1.549
1.520
1.530
1.540
1.530
1.510
1.530
1.564
1.525
1.525
1.520
1.554
1.520
1.520
1.535
1.535
1.540
1.540
1.530
1.540
1.525
1.520
1.540
1.535
1.544
1.525
1.544
1.554
1.544
1.559
1.554
1.544
1.544
1.530
1.540
1.564
1.569
1.544
1.584
1.544
1.540
1.525
1.540
1.544
1.540
1.530
1.530
1.544
1.520
1.515
1.535
1.549
1.544
1.559
1.535
1.535
1.525
1.525
1.525
1.549
1.564
1.540
1.525
1.535
1.505
1.510
1.510
1.559
1.540
1.525
1.515
1.535
1.520
1.530
1.549
1.544
1.544
1.554
1.530
1.520
1.525
1.535
1.525
1.540
1.535
1.549
1.525
1.540
1.554
1.515
1.520
1.540
1.530
1.530
1.540
1.544
1.535
1.540
1.540
1.530
1.530
1.544
1.544
1.535
1.540
1.540
1.540
1.569
1.564
1.544
1.549
1.584
1.564
1.564
1.593
1.603
1.598
1.588
1.588
1.593
1.588
1.603
1.618
1.628
1.623
1.662
1.632
1.662
1.667
1.642
1.637
1.676
1.657
1.672
1.691
1.711
1.696
1.672
1.672
1.672
1.672
1.686
1.676
1.681
1.672
1.681
1.676
1.701
1.701
1.691
1.676
1.691
1.686
1.662
1.667
1.706
1.652
1.652
1.647
1.652
1.642
1.647
1.647
1.647
1.642
1.623
1.632
1.657
1.652
1.618
1.628
1.623
1.623
1.608
1.613
1.657
1.618
1.618
1.593
1.603
1.608
1.584
1.584
1.593
1.603
1.593
1.584
1.608
1.593
1.574
1.574
1.603
1.593
1.584
1.598
1.588
1.593
1.588
1.574
1.574
1.579
1.579
1.574
1.613
1.579
1.569
1.574
1.608
1.584
1.574
1.574
1.588
1.574
1.569
1.598
1.608
1.588
1.579
1.574
1.579
1.569
1.569
1.564
1.588
1.559
1.569
1.574
1.598
1.593
1.574
1.598
1.593
1.569
1.579
1.579
1.574
1.569
1.598
1.559
1.574
1.569
1.584
1.579
1.569
1.564
1.584
1.569
1.593
1.584
1.564
1.574
1.593
1.603
1.564
1.584
1.588
1.564
1.564
1.584
1.584
1.584
1.574
1.603
1.574
1.579
1.574
1.569
1.593
1.598
1.564
1.588
1.574
1.584
1.569
1.588
1.603
1.628
1.579
1.574
1.569
1.593
1.569
1.584
1.584
1.598
1.579
1.579
1.603
1.579
1.559
1.564
1.593
1.564
1.574
1.584
1.598
1.588
1.579
1.569
1.564
1.564
1.584
1.574
1.584
1.564
1.584
1.544
1.574
1.549
1.569
1.549
1.584
1.569
1.579
1.569
1.569
1.574
1.569
1.554
1.559
1.593
1.579
1.549
1.569
1.554
1.564
1.549
1.559
1.559
1.564
1.549
1.554
1.554
1.569
1.559
1.564
1.554
1.559
1.559
1.544
1.540
1.540
1.549
1.584
1.559
1.535
1.564
1.574
1.549
1.535
1.549
1.549
1.544
1.540
1.569
1.564
1.549
1.559
1.540
1.540
1.544
1.549
1.549
1.544
1.554
1.540
1.540
1.569
1.569
1.535
1.540
1.544
1.535
1.544
1.549
1.549
1.540
1.540
1.540
1.544
1.535
1.540
1.544
1.574
1.549
1.535
1.544
1.603
1.540
1.535
1.530
1.569
1.540
1.549
1.564
1.554
1.554
1.564
1.569
1.549
1.544
1.579
1.549
1.549
1.549
1.540
1.535
1.569
1.540
1.544
1.535
1.569
1.540
1.540
1.564
1.564
1.559
1.564
1.544
1.540
1.540
1.559
1.549
1.559
1.588
1.544
1.549
1.564
1.540
1.530
1.530
1.559
1.579
1.564
1.564
1.579
1.564
1.540
1.554
1.540
1.554
1.559
1.564
1.554
1.564
1.564
1.544
1.554
1.559
1.549
1.549
1.564
1.569
1.549
1.559
1.569
1.549
1.554
1.564
1.554
1.554
1.544
1.544
1.549
1.544
1.574
1.540
1.574
1.569
1.549
1.554
1.579
1.569
1.588
1.588
1.593
1.608
1.598
1.588
1.593
1.593
1.613
1.632
1.637
1.637
1.647
1.647
1.647
1.632
1.662
1.647
1.676
1.681
1.691
1.691
1.681
1.672
1.696
1.686
1.691
1.691
1.706
1.711
1.691
1.720
1.691
1.681
1.701
1.691
1.696
1.686
1.691
1.676
1.686
1.686
1.696
1.681
1.681
1.686
1.667
1.657
1.662
1.676
1.647
1.657
1.637
1.647
1.647
1.637
1.623
1.623
1.632
1.637
1.628
1.667
1.652
1.628
1.613
1.603
1.632
1.608
1.613
1.613
1.613
1.603
1.603
1.584
1.608
1.613
1.623
1.628
1.623
1.618
1.603
1.593
1.628
1.598
1.623
1.593
1.603
1.613
1.603
1.608
1.598
1.608
1.598
1.593
1.603
1.598
1.618
1.593
1.593
1.628
1.598
1.579
1.642
1.613
1.613
1.608
1.579
1.569
1.579
1.598
1.579
1.584
1.584
1.603
1.593
1.584
1.603
1.564
1.579
1.579
1.603
1.588
1.603
1.579
1.584
1.584
1.593
1.584
1.574
1.588
1.588
1.584
1.564
1.584
1.637
1.593
1.574
1.584
1.608
1.588
1.588
1.603
1.588
1.618
1.584
1.613
1.584
1.584
1.588
1.588
1.593
1.603
1.608
1.593
1.608
1.637
1.588
1.574
1.588
1.603
1.603
1.608
1.608
1.618
1.598
1.588
1.623
1.588
1.588
1.603
1.613
1.608
1.598
1.588
1.623
1.584
1.593
1.579
1.608
1.593
1.632
1.603
1.593
1.584
1.584
1.584
1.588
1.588
1.584
1.584
1.593
1.618
1.584
1.579
1.608
1.579
1.569
1.569
1.579
1.574
1.569
1.574
1.598
1.588
1.584
1.593
1.569
1.564
1.564
1.584
1.574
1.584
1.574
1.579
1.593
1.579
1.559
1.588
1.574
1.569
1.569
1.588
1.584
1.603
1.559
1.564
1.559
1.569
1.564
1.574
1.569
1.579
1.549
1.569
1.579
1.569
1.554
1.554
1.564
1.554
1.559
1.574
1.584
1.584
1.564
1.564
1.569
1.554
1.554
1.588
1.564
1.564
1.559
1.559
1.593
1.559
1.559
1.544
1.579
1.559
1.588
1.569
1.574
1.579
1.584
1.574
1.569
1.584
1.564
1.569
1.584
1.579
1.564
1.559
1.623
1.554
1.559
1.559
1.618
1.569
1.564
1.579
1.579
1.574
1.559
1.574
1.559
1.564
1.564
1.564
1.569
1.569
1.559
1.574
1.588
1.588
1.554
1.554
1.564
1.574
1.564
1.588
1.593
1.584
1.559
1.569
1.588
1.559
1.564
1.588
1.574
1.564
1.569
1.564
1.569
1.559
1.559
1.559
1.569
1.564
1.603
1.574
1.564
1.569
1.554
1.559
1.564
1.559
1.564
1.564
1.574
1.574
1.569
1.549
1.603
1.579
1.569
1.559
1.569
1.554
1.564
1.574
1.569
1.564
1.564
1.574
1.584
1.559
1.569
1.554
1.574
1.569
1.603
1.564
1.588
1.603
1.574
1.559
1.588
1.623
1.588
1.603
1.618
1.618
1.608
1.603
1.598
1.603
1.613
1.647
1.632
1.642
1.637
1.662
1.667
1.681
1.652
1.657
1.672
1.681
1.676
1.691
1.725
1.716
1.696
1.701
1.696
1.701
1.696
1.720
1.711
1.720
1.691
1.706
1.764
1.720
1.711
1.701
1.701
1.696
1.696
1.706
1.696
1.706
1.696
1.706
1.691
1.676
1.686
1.681
1.681
1.681
1.672
1.696
1.686
1.657
1.647
1.642
1.691
1.662
1.657
1.657
1.672
1.662
1.642
1.662
1.637
1.632
1.637
1.637
1.662
1.637
1.632
1.628
1.652
1.618
1.623
1.618
1.628
1.613
1.662
1.632
1.647
1.632
1.613
1.647
1.613
1.613
1.618
1.628
1.628
1.632
1.623
1.613
1.628
1.618
1.603
1.608
1.618
1.642
1.647
1.637
1.642
1.647
1.623
1.632
1.608
1.623
1.623
1.642
1.618
1.628
1.642
1.598
1.618
1.618
1.632
1.618
1.623
1.642
1.628
1.613
1.618
1.608
1.618
1.618
1.632
1.628
1.603
1.608
1.608
1.598
1.598
1.603
1.623
1.642
1.637
1.593
1.618
1.628
1.632
1.637
1.637
1.642
1.637
1.637
1.628
1.608
1.613
1.647
1.623
1.632
1.647
1.613
1.637
1.642
1.623
1.603
1.632
1.623
1.628
1.632
1.623
1.618
1.623
1.613
1.628
1.632
1.657
1.637
1.628
1.628
1.593
1.593
1.623
1.623
1.662
1.632
1.618
1.618
1.613
1.613
1.613
1.662
1.628
1.628
1.618
1.603
1.613
1.613
1.618
1.613
1.598
1.623
1.647
1.608
1.598
1.593
1.623
1.618
1.608
1.628
1.647
1.613
1.623
1.593
1.593
1.593
1.593
1.598
1.603
1.637
1.598
1.588
1.628
1.618
1.623
1.603
1.608
1.593
1.618
1.593
1.608
1.618
1.618
1.588
1.588
1.608
1.588
1.579
1.593
1.588
1.593
1.584
1.623
1.613
1.593
1.584
1.593
1.579
1.588
1.628
1.593
1.608
1.637
1.584
1.588
1.584
1.584
1.584
1.608
1.618
1.593
1.584
1.593
1.588
1.574
1.584
1.593
1.618
1.613
1.593
1.588
1.613
1.579
1.579
1.588
1.628
1.598
1.603
1.623
1.593
1.584
1.569
1.628
1.613
1.584
1.642
1.593
1.588
1.588
1.593
1.588
1.608
1.618
1.613
1.588
1.593
1.579
1.593
1.593
1.593
1.569
1.588
1.613
1.593
1.574
1.569
1.584
1.579
1.579
1.588
1.598
1.584
1.579
1.593
1.593
1.593
1.593
1.618
1.598
1.598
1.618
1.569
1.588
1.603
1.598
1.574
1.603
1.593
1.593
1.593
1.598
1.613
1.608
1.623
1.593
1.579
1.598
1.593
1.593
1.588
1.584
1.584
1.608
1.608
1.593
1.574
1.584
1.608
1.579
1.603
1.642
1.613
1.579
1.593
1.579
1.579
1.574
1.593
1.588
1.593
1.598
1.579
1.603
1.588
1.603
1.574
1.579
1.584
1.608
1.588
1.584
1.588
1.569
1.584
1.574
1.593
1.579
1.588
1.593
1.613
1.569
1.588
1.603
1.593
1.579
1.588
1.608
1.593
1.598
1.588
1.623
1.618
1.618
1.662
1.618
1.618
1.628
1.628
1.637
1.647
1.672
1.662
1.676
1.672
1.662
1.662
1.696
1.716
1.696
1.711
1.735
1.740
1.716
1.706
1.730
1.711
1.730
1.735
1.745
1.764
1.735
1.730
1.764
1.745
1.755
1.725
1.750
1.750
1.740
1.764
1.755
1.774
1.725
1.730
1.716
1.720
1.725
1.730
1.740
1.706
1.706
1.706
1.701
1.711
1.686
1.686
1.691
1.691
1.720
1.691
1.686
1.686
1.672
1.701
1.667
1.672
1.662
1.667
1.672
1.681
1.672
1.667
1.681
1.720
1.652
1.657
1.657
1.662
1.662
1.652
1.691
1.652
1.647
1.667
1.667
1.681
1.652
1.647
1.657
1.657
1.662
1.642
1.662
1.676
1.647
1.672
1.657
1.662
1.657
1.647
1.681
1.676
1.681
1.652
1.657
1.676
1.652
1.652
1.662
1.652
1.667
1.657
1.667
1.676
1.652
1.657
1.652
1.647
1.652
1.686
1.667
1.662
1.681
1.637
1.637
1.642
1.667
1.642
1.652
1.647
1.632
1.632
1.652
1.657
1.632
1.628
1.647
1.672
1.642
1.642
1.642
1.662
1.657
1.662
1.642
1.642
1.637
1.642
1.642
1.657
1.647
1.642
1.662
1.676
1.637
1.642
1.652
1.647
1.642
1.662
1.676
1.676
1.652
1.672
1.642
1.642
1.642
1.676
1.652
1.647
1.657
1.652
1.662
1.672
1.657
1.632
1.647
1.647
1.667
1.657
1.657
1.676
1.647
1.637
1.642
1.672
1.647
1.642
1.657
1.676
1.632
1.637
1.657
1.647
1.637
1.628
1.652
1.637
1.647
1.632
1.652
1.637
1.652
1.657
1.642
1.628
1.632
1.632
1.628
1.642
1.637
1.632
1.642
1.642
1.613
1.613
1.628
1.662
1.623
1.637
1.637
1.652
1.637
1.623
1.618
1.618
1.613
1.632
1.632
1.642
1.608
1.623
1.657
1.628
1.603
1.613
1.652
1.623
1.618
1.637
1.637
1.632
1.632
1.647
1.613
1.613
1.613
1.623
1.623
1.623
1.608
1.613
1.632
1.632
1.608
1.603
1.613
1.628
1.618
1.618
1.623
1.637
1.623
1.632
1.652
1.608
1.608
1.618
1.652
1.623
1.637
1.637
1.642
1.623
1.613
1.603
1.632
1.623
1.637
1.613
1.652
1.676
1.623
1.608
1.623
1.608
1.628
1.628
1.623
1.613
1.603
1.632
1.608
1.618
1.603
1.613
1.608
1.618
1.623
1.652
1.628
1.623
1.632
1.618
1.613
1.618
1.608
1.608
1.608
1.623
1.618
1.623
1.632
1.637
1.613
1.608
1.637
1.632
1.618
1.623
1.662
1.618
1.628
1.632
1.623
1.613
1.608
1.628
1.623
1.623
1.623
1.608
1.613
1.642
1.613
1.598
1.618
1.642
1.676
1.647
1.632
1.652
1.637
1.637
1.618
1.608
1.613
1.618
1.613
1.623
1.618
1.637
1.628
1.652
1.628
1.598
1.613
1.613
1.642
1.613
1.623
1.637
1.642
1.608
1.613
1.603
1.608
1.603
1.637
1.628
1.623
1.637
1.618
1.632
1.598
1.623
1.603
1.613
1.618
1.608
1.603
1.613
1.598
1.628
1.613
1.618
1.623
1.613
1.608
1.613
1.608
1.588
1.593
1.657
1.613
1.628
1.618
1.628
1.613
1.632
1.667
1.628
1.637
1.657
1.642
1.642
1.632
1.662
1.652
1.672
1.657
1.701
1.681
1.686
1.672
1.696
1.691
1.701
1.716
1.720
1.764
1.755
1.725
1.720
1.725
1.735
1.735
1.750
1.755
1.760
1.750
1.740
1.764
1.755
1.750
1.740
1.760
1.784
1.764
1.769
1.764
1.789
1.755
1.745
1.750
1.740
1.745
1.745
1.745
1.735
1.740
1.764
1.745
1.750
1.716
1.706
1.730
1.720
1.716
1.716
1.706
1.725
1.706
1.716
1.706
1.691
1.681
1.696
1.725
1.696
1.681
1.681
1.681
1.740
1.667
1.672
1.676
1.676
1.691
1.691
1.686
1.706
1.681
1.691
1.672
1.676
1.672
1.686
1.686
1.691
1.667
1.672
1.686
1.696
1.672
1.681
1.701
1.676
1.681
1.696
1.691
1.701
1.696
1.696
1.676
1.681
1.676
1.686
1.701
1.681
1.681
1.691
1.686
1.696
1.676
1.686
1.676
1.676
1.676
1.711
1.686
1.686
1.691
1.691
1.686
1.662
1.686
1.676
1.686
1.681
1.672
1.667
1.681
1.672
1.696
1.657
1.686
1.676
1.691
1.681
1.696
1.706
1.672
1.667
1.681
1.672
1.667
1.672
1.676
1.676
1.676
1.681
1.676
1.696
1.691
1.676
1.667
1.691
1.681
1.676
1.691
1.701
1.701
1.686
1.676
1.686
1.676
1.681
1.686
1.706
1.696
1.691
1.681
1.720
1.681
1.681
1.681
1.686
1.696
1.691
1.716
1.720
1.696
1.711
1.696
1.681
1.691
1.681
1.676
1.681
1.686
1.686
1.681
1.711
1.696
1.681
1.681
1.696
1.691
1.701
1.686
1.696
1.691
1.696
1.691
1.672
1.686
1.667
1.676
1.667
1.701
1.672
1.676
1.706
1.691
1.676
1.701
1.686
1.686
1.691
1.676
1.676
1.667
1.657
1.662
1.652
1.662
1.691
1.676
1.681
1.691
1.652
1.652
1.696
1.676
1.672
1.672
1.676
1.662
1.662
1.662
1.657
1.662
1.652
1.657
1.672
1.691
1.652
1.647
1.647
1.647
1.647
1.647
1.691
1.672
1.676
1.652
1.691
1.667
1.647
1.672
1.667
1.647
1.657
1.642
1.662
1.662
1.662
1.642
1.647
1.647
1.676
1.657
1.686
1.681
1.647
1.657
1.657
1.662
1.642
1.662
1.647
1.642
1.637
1.657
1.637
1.642
1.642
1.647
1.637
1.642
1.632
1.662
1.686
1.667
1.676
1.657
1.667
1.647
1.632
1.657
1.657
1.657
1.647
1.642
1.647
1.647
1.647
1.647
1.657
1.632
1.637
1.637
1.696
1.657
1.652
1.632
1.647
1.652
1.642
1.647
1.662
1.642
1.632
1.632
1.647
1.681
1.642
1.637
1.642
1.632
1.632
1.632
1.681
1.652
1.652
1.676
1.662
1.657
1.662
1.662
1.647
1.632
1.637
1.628
1.642
1.662
1.637
1.628
1.632
1.628
1.632
1.628
1.681
1.642
1.647
1.662
1.647
1.642
1.667
1.652
1.662
1.662
1.628
1.628
1.623
1.662
1.637
1.637
1.657
1.628
1.628
1.632
1.642
1.628
1.618
1.652
1.647
1.642
1.642
1.657
1.628
1.632
1.623
1.628
1.623
1.642
1.623
1.623
1.623
1.628
1.613
1.632
1.657
1.662
1.628
1.632
1.686
1.632
1.613
1.637
1.628
1.618
1.628
1.618
1.623
1.628
1.632
1.632
1.623
1.637
1.642
1.637
1.647
1.618
1.637
1.632
1.657
1.637
1.652
1.667
1.672
1.652
1.686
1.652
1.647
1.662
1.676
1.657
1.667
1.686
1.681
1.686
1.701
1.696
1.716
1.706
1.760
1.750
1.745
1.745
1.745
1.740
1.755
1.784
1.755
1.750
1.750
1.755
1.760
1.760
1.764
1.794
1.808
1.808
1.789
1.794
1.808
1.784
1.764
1.804
1.799
1.794
1.794
1.774
1.760
1.764
1.769
1.769
1.760
1.779
1.774
1.764
1.789
1.769
1.760
1.745
1.750
1.760
1.750
1.764
1.745
1.725
1.735
1.716
1.730
1.725
1.735
1.730
1.706
1.730
1.706
1.711
1.745
1.730
1.725
1.706
1.716
1.725
1.740
1.706
1.706
1.696
1.711
1.706
1.716
1.716
1.696
1.686
1.696
1.686
1.696
1.730
1.730
1.735
1.701
1.701
1.701
1.701
1.730
1.706
1.716
1.711
1.691
1.686
1.686
1.706
1.686
1.686
1.691
1.720
1.691
1.691
1.725
1.691
1.696
1.711
1.696
1.691
1.686
1.701
1.696
1.681
1.686
1.701
1.701
1.706
1.706
1.686
1.676
1.681
1.696
1.691
1.716
1.730
1.691
1.701
1.691
1.681
1.672
1.720
1.696
1.686
1.701
1.701
1.686
1.681
1.676
1.676
1.681
1.691
1.716
1.691
1.725
1.725
1.706
1.691
1.716
1.696
1.696
1.701
1.711
1.686
1.701
1.701
1.745
1.691
1.701
1.696
1.696
1.691
1.701
1.701
1.735
1.720
1.730
1.711
1.725
1.725
1.701
1.706
1.711
1.701
1.706
1.696
1.696
1.730
1.711
1.706
1.711
1.701
1.686
1.681
1.711
1.691
1.696
1.701
1.720
1.706
1.696
1.720
1.720
1.711
1.691
1.706
1.711
1.701
1.691
1.701
1.691
1.701
1.696
1.706
1.730
1.706
1.706
1.706
1.740
1.711
1.686
1.716
1.696
1.686
1.711
1.701
1.711
1.701
1.716
1.686
1.681
1.686
1.691
1.691
1.720
1.725
1.701
1.696
1.711
1.686
1.681
1.696
1.701
1.691
1.686
1.691
1.681
1.676
1.686
1.706
1.706
1.706
1.720
1.701
1.720
1.706
1.686
1.672
1.701
1.711
1.711
1.720
1.711
1.686
1.686
1.691
1.711
1.691
1.701
1.711
1.686
1.691
1.691
1.716
1.691
1.676
1.701
1.730
1.691
1.691
1.691
1.701
1.701
1.686
1.706
1.706
1.691
1.691
1.681
1.686
1.691
1.711
1.696
1.691
1.716
1.701
1.691
1.686
1.720
1.686
1.681
1.701
1.720
1.706
1.711
1.686
1.676
1.681
1.681
1.716
1.686
1.696
1.701
1.681
1.716
1.691
1.676
1.667
1.691
1.701
1.676
1.681
1.686
1.676
1.686
1.676
1.681
1.696
1.696
1.691
1.696
1.681
1.691
1.672
1.730
1.676
1.696
1.686
1.696
1.667
1.686
1.686
1.701
1.686
1.691
1.706
1.701
1.672
1.681
1.701
1.686
1.686
1.686
1.686
1.706
1.686
1.676
1.662
1.696
1.701
1.672
1.681
1.691
1.691
1.691
1.667
1.672
1.672
1.672
1.672
1.686
1.691
1.672
1.681
1.735
1.696
1.672
1.672
1.686
1.681
1.662
1.716
1.696
1.701
1.686
1.676
1.667
1.672
1.686
1.676
1.672
1.686
1.662
1.672
1.711
1.672
1.657
1.652
1.672
1.672
1.672
1.696
1.706
1.676
1.691
1.691
1.672
1.667
1.676
1.681
1.716
1.681
1.686
1.686
1.730
1.720
1.735
1.720
1.735
1.735
1.730
1.730
1.755
1.740
1.740
1.750
1.764
1.769
1.789
1.769
1.789
1.760
1.769
1.804
1.833
1.828
1.804
1.784
1.799
1.804
1.804
1.808
1.833
1.828
1.828
1.808
1.804
1.823
1.804
1.808
1.804
1.818
1.823
1.823
1.857
1.813
1.823
1.794
1.804
1.818
1.794
1.833
1.804
1.794
1.779
1.794
1.804
1.804
1.779
1.779
1.764
1.779
1.774
1.769
1.799
1.779
1.769
1.774
1.779
1.764
1.769
1.760
1.774
1.750
1.769
1.779
1.769
1.745
1.745
1.740
1.755
1.750
1.755
1.774
1.779
1.760
1.745
1.725
1.769
1.755
1.755
1.760
1.779
1.769
1.755
1.750
1.745
1.740
1.779
1.750
1.769
1.760
1.769
1.745
1.779
1.764
1.755
1.740
1.760
1.760
1.784
1.755
1.769
1.740
1.750
1.750
1.745
1.745
1.755
1.750
1.750
1.740
1.740
1.745
1.789
1.755
1.755
1.730
1.745
1.755
1.735
1.764
1.769
1.779
1.774
1.789
1.755
1.740
1.735
1.750
1.755
1.755
1.750
1.789
1.784
1.745
1.740
1.784
1.769
1.769
1.779
1.779
1.760
1.740
1.774
1.740
1.755
1.760
1.799
1.750
1.760
1.760
1.755
1.735
1.764
1.769
1.764
1.755
1.769
1.755
1.755
1.760
1.760
1.779
1.764
1.755
1.760
1.750
1.755
1.745
1.769
1.760
1.794
1.755
1.794
1.760
1.750
1.740
1.760
1.750
1.755
1.784
1.760
1.794
1.769
1.760
1.755
1.740
1.745
1.745
1.760
1.750
1.750
1.740
1.779
1.755
1.735
1.735
1.764
1.760
1.745
1.779
1.760
1.769
1.764
1.740
1.735
1.740
1.750
1.740
1.735
1.755
1.740
1.740
1.760
1.799
1.725
1.730
1.740
1.730
1.725
1.740
1.760
1.750
1.740
1.730
1.725
1.720
1.725
1.730
1.735
1.730
1.740
1.745
1.760
1.735
1.720
1.711
1.730
1.725
1.730
1.735
1.745
1.725
1.764
1.740
1.720
1.725
1.740
1.725
1.740
1.706
1.725
1.716
1.740
1.740
1.735
1.711
1.740
1.725
1.750
1.750
1.764
1.720
1.730
1.735
1.725
1.720
1.720
1.735
1.720
1.730
1.730
1.725
1.745
1.735
1.750
1.711
1.720
1.720
1.745
1.740
1.740
1.779
1.740
1.716
1.716
1.720
1.716
1.720
1.730
1.745
1.735
1.720
1.779
1.735
1.706
1.716
1.730
1.735
1.716
1.730
1.735
1.735
1.730
1.735
1.730
1.720
1.720
1.716
1.720
1.725
1.706
1.716
1.735
1.755
1.706
1.696
1.730
1.716
1.711
1.735
1.725
1.750
1.725
1.711
1.711
1.701
1.706
1.725
1.720
1.711
1.720
1.735
1.750
1.716
1.720
1.720
1.716
1.706
1.730
1.711
1.725
1.720
1.725
1.701
1.706
1.701
1.706
1.701
1.711
1.711
1.711
1.701
1.711
1.735
1.701
1.691
1.701
1.701
1.701
1.701
1.701
1.740
1.711
1.716
1.706
1.691
1.691
1.691
1.701
1.701
1.696
1.701
1.720
1.711
1.686
1.691
1.706
1.701
1.706
1.701
1.706
1.730
1.696
1.691
1.681
1.696
1.686
1.696
1.706
1.730
1.676
1.686
1.711
1.711
1.686
1.681
1.691
1.696
1.691
1.716
1.720
1.691
1.681
1.696
1.686
1.681
1.691
1.701
1.701
1.686
1.681
1.691
1.725
1.691
1.711
1.676
1.706
1.681
1.706
1.701
1.706
1.711
1.745
1.725
1.725
1.711
1.720
1.716
1.740
1.755
1.755
1.740
1.769
1.774
1.755
1.750
1.789
1.779
1.784
1.789
1.818
1.808
1.808
1.799
1.799
1.813
1.813
1.813
1.823
1.833
1.857
1.828
1.867
1.852
1.828
1.823
1.833
1.838
1.833
1.838
1.843
1.852
1.872
1.833
1.828
1.828
1.823
1.838
1.833
1.828
1.813
1.823
1.891
1.828
1.818
1.804
1.813
1.808
1.808
1.838
1.823
1.838
1.813
1.813
1.799
1.799
1.833
1.808
1.818
1.774
1.799
1.789
1.823
1.784
1.784
1.779
1.813
1.789
1.804
1.818
1.838
1.828
1.794
1.789
1.804
1.789
1.804
1.789
1.808
1.799
1.813
1.828
1.823
1.823
1.808
1.784
1.828
1.789
1.808
1.808
1.813
1.823
1.823
1.804
1.799
1.794
1.799
1.799
1.808
1.813
1.813
1.804
1.833
1.818
1.799
1.794
1.818
1.799
1.808
1.823
1.799
1.808
1.808
1.813
1.823
1.804
1.799
1.799
1.804
1.808
1.794
1.794
1.813
1.823
1.794
1.794
1.813
1.789
1.808
1.818
1.823
1.808
1.813
1.794
1.813
1.784
1.794
1.789
1.799
1.823
1.804
1.804
1.843
1.799
1.833
1.779
1.799
1.799
1.808
1.833
1.828
1.833
1.808
1.794
1.808
1.799
1.804
1.813
1.828
1.813
1.813
1.789
1.848
1.823
1.823
1.794
1.818
1.833
1.818
1.808
1.804
1.804
1.799
1.804
1.808
1.813
1.804
1.799
1.833
1.808
1.813
1.804
1.833
1.843
1.818
1.818
1.799
1.799
1.799
1.813
1.828
1.828
1.828
1.848
1.828
1.823
1.794
1.799
1.804
1.823
1.823
1.828
1.823
1.823
1.779
1.784
1.804
1.818
1.833
1.828
1.804
1.794
1.779
1.799
1.779
1.799
1.808
1.813
1.784
1.779
1.789
1.794
1.794
1.799
1.818
1.794
1.799
1.784
1.784
1.794
1.799
1.804
1.799
1.804
1.789
1.774
1.774
1.769
1.794
1.789
1.794
1.774
1.808
1.764
1.764
1.755
1.808
1.764
1.789
1.794
1.794
1.769
1.764
1.764
1.764
1.755
1.760
1.774
1.784
1.764
1.764
1.764
1.760
1.750
1.745
1.764
1.799
1.769
1.750
1.774
1.764
1.750
1.750
1.784
1.764
1.769
1.755
1.745
1.755
1.760
1.750
1.750
1.774
1.794
1.764
1.740
1.745
1.740
1.750
1.755
1.760
1.764
1.769
1.760
1.745
1.740
1.750
1.760
1.755
1.750
1.750
1.760
1.755
1.730
1.735
1.725
1.745
1.740
1.784
1.760
1.774
1.760
1.730
1.730
1.735
1.769
1.745
1.730
1.750
1.735
1.740
1.720
1.784
1.755
1.745
1.725
1.745
1.735
1.745
1.740
1.750
1.730
1.784
1.745
1.755
1.725
1.725
1.725
1.735
1.725
1.735
1.725
1.764
1.755
1.725
1.720
1.730
1.745
1.730
1.740
1.750
1.750
1.760
1.725
1.720
1.735
1.720
1.730
1.735
1.774
1.716
1.730
1.789
1.755
1.716
1.730
1.740
1.730
1.725
1.774
1.740
1.760
1.750
1.730
1.725
1.740
1.720
1.725
1.720
1.745
1.716
1.720
1.750
1.789
1.755
1.740
1.764
1.730
1.745
1.740
1.735
1.725
1.730
1.716
1.716
1.716
1.725
1.760
1.735
1.725
1.720
1.745
1.750
1.750
1.745
1.720
1.745
1.725
1.725
1.725
1.725
1.720
1.720
1.720
1.730
1.735
1.730
1.735
1.720
1.711
1.716
1.720
1.735
1.735
1.750
1.725
1.745
1.764
1.711
1.725
1.730
1.716
1.716
1.720
1.755
1.740
1.720
1.745
1.730
1.740
1.755
1.730
1.774
1.779
1.760
1.750
1.769
1.769
1.774
1.794
1.818
1.813
1.813
1.804
1.804
1.808
1.813
1.843
1.843
1.867
1.843
1.848
1.857
1.852
1.852
1.852
1.877
1.882
1.872
1.926
1.872
1.867
1.862
1.877
1.901
1.867
1.882
1.887
1.872
1.877
1.862
1.862
1.877
1.862
1.872
1.872
1.887
1.852
1.867
1.867
1.867
1.867
1.862
1.877
1.862
1.843
1.843
1.838
1.887
1.848
1.852
1.833
1.867
1.838
1.843
1.823
1.838
1.828
1.838
1.843
1.887
1.872
1.862
1.852
1.872
1.857
1.872
1.867
1.862
1.862
1.838
1.848
1.852
1.862
1.848
1.833
1.838
1.867
1.828
1.838
1.862
1.833
1.828
1.833
1.828
1.852
1.852
1.843
1.867
1.848
1.823
1.833
1.852
1.862
1.838
1.857
1.867
1.848
1.872
1.857
1.862
1.877
1.843
1.872
1.857
1.848
1.848
1.843
1.862
1.852
1.857
1.852
1.862
1.872
1.838
1.833
1.891
1.848
1.852
1.857
1.862
1.891
1.867
1.843
1.848
1.838
1.848
1.848
1.857
1.843
1.838
1.857
1.882
1.843
1.838
1.828
1.882
1.838
1.857
1.867
1.857
1.867
1.867
1.852
1.838
1.838
1.852
1.843
1.848
1.857
1.848
1.848
1.857
1.877
1.862
1.833
1.857
1.843
1.848
1.867
1.843
1.867
1.862
1.867
1.867
1.848
1.848
1.848
1.848
1.867
1.852
1.843
1.862
1.867
1.843
1.843
1.857
1.843
1.838
1.843
1.852
1.877
1.848
1.838
1.852
1.838
1.833
1.852
1.828
1.828
1.828
1.848
1.867
1.857
1.852
1.852
1.848
1.838
1.838
1.857
1.848
1.843
1.857
1.818
1.828
1.813
1.833
1.828
1.838
1.843
1.833
1.813
1.833
1.818
1.804
1.794
1.838
1.823
1.843
1.804
1.813
1.813
1.823
1.823
1.857
1.828
1.833
1.828
1.804
1.799
1.794
1.823
1.833
1.838
1.838
1.813
1.823
1.823
1.804
1.818
1.799
1.808
1.799
1.799
1.818
1.789
1.774
1.769
1.779
1.774
1.769
1.779
1.813
1.833
1.808
1.818
1.828
1.794
1.784
1.804
1.813
1.794
1.794
1.843
1.804
1.794
1.794
1.789
1.789
1.784
1.764
1.779
1.818
1.794
1.799
1.828
1.794
1.784
1.804
1.779
1.769
1.804
1.789
1.789
1.804
1.760
1.760
1.769
1.784
1.774
1.784
1.784
1.784
1.755
1.750
1.740
1.774
1.764
1.808
1.764
1.794
1.769
1.750
1.755
1.789
1.774
1.779
1.789
1.789
1.760
1.769
1.750
1.774
1.804
1.774
1.784
1.804
1.784
1.774
1.755
1.764
1.769
1.755
1.745
1.740
1.764
1.735
1.745
1.730
1.774
1.745
1.740
1.784
1.764
1.750
1.764
1.735
1.735
1.735
1.740
1.740
1.745
1.769
1.735
1.764
1.745
1.735
1.735
1.769
1.725
1.720
1.760
1.755
1.769
1.769
1.735
1.750
1.750
1.725
1.730
1.725
1.725
1.720
1.740
1.720
1.720
1.735
1.735
1.716
1.716
1.745
1.720
1.720
1.711
1.725
1.725
1.730
1.716
1.716
1.720
1.750
1.706
1.725
1.779
1.745
1.725
1.720
1.711
1.720
1.701
1.716
1.725
1.730
1.740
1.760
1.735
1.730
1.711
1.711
1.720
1.706
1.701
1.706
1.691
1.696
1.696
1.686
1.691
1.730
1.706
1.701
1.706
1.706
1.711
1.701
1.686
1.711
1.711
1.691
1.730
1.696
1.686
1.681
1.720
1.730
1.716
1.711
1.716
1.711
1.706
1.711
1.720
1.750
1.750
1.740
1.764
1.760
1.745
1.774
1.755
1.799
1.755
1.760
1.774
1.760
1.760
1.774
1.774
1.784
1.799
1.828
1.799
1.838
1.852
1.804
1.794
1.823
1.843
1.848
1.833
1.857
1.828
1.823
1.838
1.867
1.882
1.872
1.882
1.857
1.848
1.833
1.852
1.867
1.877
1.862
1.867
1.867
1.857
1.901
1.838
1.843
1.838
1.852
1.833
1.823
1.828
1.823
1.813
1.862
1.828
1.857
1.848
1.867
1.843
1.857
1.813
1.833
1.818
1.823
1.828
1.838
1.823
1.804
1.799
1.857
1.833
1.818
1.828
1.818
1.823
1.804
1.823
1.838
1.843
1.848
1.833
1.848
1.828
1.813
1.828
1.848
1.828
1.828
1.838
1.843
1.833
1.823
1.823
1.823
1.838
1.818
1.818
1.838
1.857
1.843
1.843
1.843
1.828
1.843
1.808
1.818
1.833
1.833
1.833
1.828
1.813
1.808
1.804
1.808
1.818
1.833
1.833
1.838
1.843
1.828
1.818
1.813
1.818
1.828
1.833
1.838
1.813
1.813
1.799
1.799
1.818
1.818
1.818
1.818
1.799
1.799
1.799
1.823
1.862
1.818
1.823
1.828
1.833
1.804
1.818
1.804
1.818
1.823
1.818
1.828
1.828
1.813
1.852
1.813
1.808
1.813
1.813
1.833
1.862
1.799
1.804
1.808
1.813
1.818
1.818
1.848
1.843
1.818
1.813
1.799
1.799
1.823
1.804
1.808
1.804
1.808
1.804
1.828
1.843
1.813
1.808
1.823
1.813
1.808
1.794
1.823
1.818
1.794
1.794
1.808
1.828
1.818
1.804
1.808
1.784
1.794
1.799
1.838
1.838
1.808
1.823
1.828
1.799
1.804
1.794
1.818
1.813
1.794
1.799
1.813
1.784
1.779
1.779
1.789
1.789
1.784
1.784
1.813
1.789
1.784
1.784
1.779
1.774
1.784
1.779
1.774
1.789
1.789
1.774
1.760
1.769
1.769
1.799
1.764
1.774
1.784
1.774
1.774
1.789
1.804
1.769
1.764
1.774
1.774
1.764
1.760
1.774
1.779
1.764
1.755
1.760
1.784
1.750
1.745
1.764
1.764
1.769
1.774
1.804
1.764
1.740
1.760
1.755
1.755
1.760
1.774
1.755
1.769
1.769
1.764
1.750
1.750
1.774
1.755
1.755
1.769
1.755
1.774
1.769
1.769
1.740
1.750
1.755
1.799
1.750
1.769
1.769
1.769
1.745
1.750
1.740
1.745
1.740
1.764
1.740
1.745
1.755
1.774
1.774
1.755
1.764
1.735
1.730
1.720
1.750
1.755
1.760
1.755
1.760
1.730
1.730
1.720
1.725
1.725
1.755
1.740
1.745
1.750
1.755
1.755
1.730
1.720
1.745
1.745
1.735
1.730
1.740
1.735
1.755
1.755
1.750
1.730
1.725
1.725
1.740
1.755
1.725
1.735
1.779
1.716
1.711
1.725
1.755
1.730
1.740
1.750
1.725
1.720
1.730
1.716
1.711
1.730
1.730
1.725
1.720
1.745
1.720
1.711
1.735
1.730
1.716
1.720
1.750
1.716
1.711
1.735
1.716
1.706
1.701
1.706
1.711
1.706
1.706
1.725
1.711
1.716
1.701
1.711
1.720
1.696
1.686
1.706
1.706
1.720
1.720
1.711
1.706
1.686
1.706
1.691
1.696
1.720
1.716
1.696
1.701
1.681
1.672
1.686
1.720
1.696
1.691
1.706
1.691
1.691
1.701
1.691
1.696
1.681
1.725
1.701
1.686
1.681
1.681
1.676
1.681
1.701
1.681
1.686
1.720
1.720
1.701
1.711
1.696
1.706
1.676
1.686
1.681
1.672
1.672
1.672
1.691
1.676
1.667
1.701
1.667
1.667
1.672
1.681
1.696
1.730
1.667
1.681
1.716
1.662
1.667
1.681
1.667
1.667
1.681
1.667
1.672
1.681
1.676
1.672
1.662
1.667
1.667
1.681
1.701
1.691
1.691
1.686
1.686
1.696
1.681
1.711
1.706
1.716
1.691
1.696
1.725
1.725
1.711
1.720
1.755
1.720
1.730
1.740
1.779
1.769
1.784
1.774
1.789
1.794
1.769
1.774
1.799
1.774
1.784
1.789
1.838
1.813
1.804
1.804
1.804
1.794
1.818
1.808
1.852
1.828
1.828
1.823
1.823
1.852
1.828
1.833
1.823
1.808
1.804
1.804
1.808
1.799
1.804
1.818
1.813
1.823
1.794
1.808
1.833
1.808
1.813
1.823
1.823
1.818
1.804
1.818
1.804
1.804
1.789
1.794
1.799
1.808
1.813
1.799
1.808
1.789
1.784
1.794
1.828
1.823
1.808
1.823
1.818
1.823
1.813
1.804
1.813
1.799
1.794
1.794
1.818
1.808
1.799
1.808
1.794
1.799
1.794
1.804
1.852
1.813
1.838
1.818
1.843
1.818
1.823
1.828
1.843
1.804
1.804
1.804
1.804
1.804
1.813
1.818
1.828
1.823
1.818
1.828
1.838
1.813
1.828
1.838
1.843
1.813
1.823
1.828
1.852
1.799
1.818
1.804
1.804
1.818
1.813
1.818
1.794
1.789
1.813
1.799
1.838
1.828
1.818
1.852
1.828
1.838
1.818
1.818
1.813
1.804
1.828
1.794
1.799
1.848
1.813
1.813
1.794
1.808
1.818
1.818
1.848
1.818
1.804
1.823
1.838
1.828
1.833
1.813
1.823
1.804
1.799
1.828
1.799
1.818
1.818
1.813
1.823
1.813
1.813
1.794
1.818
1.808
1.804
1.804
1.828
1.808
1.828
1.838
1.828
1.838
1.818
1.808
1.808
1.804
1.833
1.799
1.804
1.828
1.813
1.808
1.857
1.843
1.833
1.808
1.823
1.838
1.843
1.818
1.823
1.799
1.804
1.813
1.799
1.808
1.813
1.818
1.818
1.799
1.808
1.789
1.828
1.848
1.813
1.828
1.813
1.808
1.813
1.828
1.799
1.808
1.789
1.818
1.789
1.804
1.808
1.799
1.779
1.779
1.794
1.789
1.813
1.813
1.804
1.804
1.794
1.794
1.794
1.789
1.799
1.794
1.774
1.774
1.799
1.789
1.789
1.779
1.769
1.774
1.769
1.779
1.823
1.789
1.813
1.779
1.789
1.769
1.779
1.774
1.779
1.789
1.779
1.784
1.764
1.764
1.764
1.774
1.764
1.755
1.774
1.779
1.799
1.784
1.789
1.760
1.774
1.760
1.774
1.769
1.823
1.764
1.769
1.764
1.760
1.750
1.769
1.774
1.760
1.755
1.760
1.764
1.794
1.740
1.745
1.755
1.769
1.769
1.750
1.769
1.774
1.750
1.745
1.755
1.774
1.745
1.735
1.750
1.764
1.735
1.735
1.750
1.794
1.764
1.745
1.784
1.755
1.760
1.740
1.745
1.745
1.740
1.725
1.735
1.735
1.735
1.730
1.730
1.720
1.730
1.755
1.745
1.750
1.774
1.740
1.725
1.764
1.725
1.725
1.735
1.735
1.720
1.720
1.730
1.730
1.730
1.720
1.720
1.716
1.716
1.725
1.725
1.750
1.760
1.716
1.720
1.725
1.711
1.725
1.735
1.779
1.720
1.711
1.730
1.730
1.725
1.720
1.696
1.706
1.696
1.716
1.711
1.730
1.706
1.730
1.711
1.725
1.701
1.691
1.740
1.706
1.696
1.735
1.716
1.701
1.716
1.686
1.686
1.696
1.716
1.696
1.711
1.750
1.701
1.691
1.686
1.696
1.696
1.696
1.706
1.701
1.691
1.676
1.681
1.672
1.725
1.696
1.701
1.676
1.676
1.686
1.681
1.676
1.676
1.667
1.672
1.676
1.672
1.691
1.691
1.676
1.701
1.672
1.667
1.676
1.667
1.676
1.667
1.662
1.672
1.676
1.676
1.706
1.686
1.691
1.652
1.672
1.667
1.662
1.676
1.681
1.716
1.696
1.662
1.667
1.662
1.667
1.686
1.681
1.686
1.686
1.676
1.711
1.691
1.681
1.681
1.686
1.691
1.730
1.701
1.696
1.701
1.706
1.706
1.716
1.750
1.725
1.735
1.755
1.740
1.745
1.755
1.779
1.760
1.769
1.764
1.784
1.784
1.769
1.779
1.804
1.804
1.823
1.813
1.799
1.799
1.789
1.808
1.823
1.813
1.799
1.813
1.843
1.808
1.789
1.799
1.843
1.794
1.804
1.813
1.833
1.838
1.799
1.818
1.794
1.799
1.804
1.804
1.813
1.804
1.794
1.804
1.833
1.799
1.784
1.784
1.808
1.804
1.789
1.818
1.838
1.808
1.799
1.784
1.804
1.804
1.794
1.808
1.808
1.794
1.799
1.779
1.804
1.804
1.789
1.774
1.794
1.789
1.818
1.804
1.799
1.789
1.804
1.799
1.789
1.813
1.808
1.789
1.799
1.804
1.804
1.794
1.804
1.813
1.799
1.789
1.799
1.808
1.818
1.813
1.808
1.828
1.808
1.808
1.794
1.799
1.799
1.808
1.813
1.828
1.794
1.804
1.823
1.804
1.799
1.794
1.794
1.784
1.804
1.813
1.823
1.813
1.794
1.794
1.794
1.789
1.784
1.799
1.799
1.789
1.804
1.789
1.818
1.799
1.784
1.804
1.794
1.799
1.794
1.808
1.813
1.789
1.799
1.794
1.794
1.794
1.799
1.799
1.833
1.799
1.799
1.794
1.833
1.794
1.799
1.784
1.818
1.808
1.813
1.804
1.808
1.823
1.823
1.823
1.808
1.799
1.808
1.813
1.808
1.804
1.799
1.799
1.818
1.813
1.818
1.804
1.799
1.794
1.799
1.843
1.818
1.838
1.794
1.794
1.784
1.794
1.799
1.799
1.794
1.813
1.794
1.784
1.789
1.784
1.774
1.779
1.789
1.799
1.794
1.813
1.794
1.789
1.779
1.784
1.789
1.784
1.784
1.784
1.813
1.789
1.774
1.779
1.848
1.779
1.774
1.764
1.764
1.764
1.764
1.789
1.779
1.789
1.799
1.789
1.779
1.764
1.764
1.769
1.779
1.764
1.764
1.794
1.804
1.764
1.764
1.745
1.779
1.784
1.774
1.779
1.799
1.784
1.764
1.755
1.760
1.764
1.794
1.769
1.774
1.774
1.755
1.750
1.779
1.755
1.745
1.740
1.755
1.750
1.774
1.779
1.774
1.794
1.750
1.745
1.750
1.769
1.740
1.750
1.769
1.755
1.740
1.740
1.779
1.740
1.730
1.735
1.750
1.750
1.745
1.779
1.755
1.740
1.730
1.774
1.725
1.725
1.750
1.755
1.740
1.730
1.716
1.711
1.725
1.716
1.745
1.725
1.750
1.720
1.725
1.735
1.740
1.706
1.725
1.725
1.725
1.711
1.711
1.725
1.750
1.711
1.706
1.711
1.779
1.706
1.730
1.735
1.725
1.701
1.720
1.740
1.745
1.711
1.720
1.706
1.711
1.706
1.706
1.711
1.725
1.701
1.711
1.706
1.769
1.701
1.696
1.696
1.701
1.691
1.701
1.735
1.701
1.701
1.711
1.691
1.691
1.691
1.691
1.701
1.701
1.730
1.681
1.686
1.725
1.686
1.681
1.696
1.696
1.686
1.696
1.696
1.681
1.691
1.711
1.706
1.681
1.716
1.676
1.681
1.720
1.686
1.672
1.681
1.701
1.701
1.662
1.667
1.691
1.667
1.672
1.686
1.681
1.696
1.672
1.662
1.657
1.657
1.681
1.662
1.676
1.667
1.662
1.662
1.696
1.652
1.676
1.642
1.657
1.652
1.657
1.667
1.696
1.657
1.657
1.642
1.647
1.657
1.652
1.652
1.667
1.652
1.647
1.647
1.667
1.642
1.652
1.632
1.657
1.632
1.642
1.657
1.652
1.662
1.676
1.657
1.662
1.632
1.642
1.637
1.637
1.647
1.632
1.647
1.667
1.628
1.623
1.647
1.637
1.647
1.647
1.657
1.681
1.652
1.628
1.628
1.642
1.662
1.647
1.647
1.667
1.647
1.637
1.623
1.657
1.667
1.642
1.652
1.672
1.652
1.652
1.657
1.667
1.667
1.662
1.667
1.681
1.676
1.686
1.706
1.711
1.701
1.691
1.701
1.760
1.716
1.711
1.716
1.730
1.740
1.740
1.750
1.764
1.760
1.799
1.774
1.764
1.760
1.764
1.769
1.779
1.794
1.789
1.774
1.799
1.764
1.774
1.760
1.799
1.794
1.784
1.813
1.813
1.789
1.779
1.769
1.774
1.769
1.774
1.774
1.784
1.794
1.769
1.769
1.779
1.755
1.764
1.755
1.760
1.774
1.769
1.779
1.789
1.764
1.774
1.760
1.755
1.755
1.750
1.764
1.760
1.769
1.755
1.760
1.813
1.755
1.750
1.755
1.764
1.794
1.755
1.799
1.789
1.789
1.779
1.774
1.760
1.760
1.789
1.769
1.774
1.774
1.769
1.784
1.784
1.769
1.760
1.774
1.789
1.779
1.779
1.799
1.808
1.799
1.784
1.779
1.779
1.779
1.799
1.784
1.804
1.774
1.789
1.784
1.823
1.804
1.784
1.769
1.784
1.769
1.804
1.808
1.823
1.808
1.789
1.779
1.774
1.769
1.769
1.784
1.794
1.779
1.779
1.784
1.784
1.774
1.760
1.760
1.789
1.769
1.779
1.804
1.779
1.794
1.789
1.794
1.774
1.779
1.774
1.789
1.794
1.789
1.779
1.794
1.794
1.784
1.779
1.774
1.813
1.779
1.784
1.828
1.794
1.808
1.784
1.789
1.779
1.779
1.779
1.779
1.784
1.808
1.774
1.789
1.813
1.789
1.774
1.764
1.779
1.769
1.784
1.799
1.813
1.818
1.779
1.769
1.784
1.774
1.779
1.784
1.799
1.808
1.774
1.769
1.818
1.764
1.774
1.769
1.779
1.764
1.789
1.779
1.794
1.769
1.774
1.789
1.779
1.769
1.789
1.774
1.784
1.760
1.760
1.784
1.769
1.764
1.789
1.755
1.760
1.750
1.774
1.784
1.774
1.774
1.784
1.774
1.760
1.764
1.755
1.755
1.764
1.784
1.769
1.755
1.784
1.769
1.755
1.750
1.750
1.764
1.750
1.764
1.784
1.769
1.764
1.755
1.745
1.750
1.745
1.750
1.750
1.760
1.760
1.755
1.779
1.745
1.740
1.745
1.745
1.730
1.740
1.760
1.769
1.764
1.745
1.735
1.735
1.730
1.735
1.735
1.745
1.740
1.740
1.730
1.774
1.725
1.725
1.716
1.740
1.725
1.755
1.750
1.750
1.745
1.755
1.740
1.755
1.720
1.735
1.735
1.769
1.735
1.725
1.720
1.764
1.716
1.716
1.740
1.735
1.720
1.725
1.760
1.735
1.740
1.720
1.716
1.716
1.711
1.720
1.716
1.720
1.711
1.701
1.720
1.725
1.735
1.706
1.696
1.706
1.735
1.711
1.720
1.730
1.740
1.711
1.720
1.696
1.701
1.696
1.725
1.706
1.711
1.691
1.706
1.730
1.696
1.696
1.686
1.696
1.686
1.716
1.691
1.696
1.706
1.696
1.691
1.686
1.711
1.686
1.686
1.696
1.686
1.676
1.676
1.740
1.676
1.681
1.681
1.716
1.672
1.681
1.691
1.696
1.696
1.686
1.667
1.676
1.667
1.676
1.667
1.676
1.681
1.672
1.676
1.686
1.701
1.667
1.657
1.667
1.662
1.676
1.676
1.691
1.701
1.672
1.657
1.652
1.657
1.657
1.667
1.681
1.667
1.657
1.657
1.686
1.647
1.642
1.642
1.667
1.647
1.657
1.657
1.662
1.657
1.662
1.696
1.657
1.647
1.647
1.652
1.686
1.657
1.637
1.652
1.662
1.681
1.637
1.642
1.667
1.642
1.662
1.652
1.676
1.667
1.647
1.667
1.647
1.642
1.672
1.657
1.672
1.662
1.662
1.662
1.711
1.672
1.686
1.667
1.686
1.716
1.706
1.720
1.745
1.730
1.711
1.740
1.725
1.725
1.760
1.740
1.755
1.750
1.750
1.745
1.769
1.769
1.760
1.750
1.764
1.764
1.774
1.760
1.774
1.813
1.789
1.784
1.794
1.789
1.769
1.769
1.784
1.789
1.784
1.794
1.833
1.799
1.794
1.774
1.784
1.804
1.808
1.833
1.804
1.818
1.804
1.808
1.769
1.774
1.784
1.774
1.789
1.784
1.774
1.779
1.784
1.813
1.774
1.769
1.789
1.779
1.764
1.769
1.784
1.789
1.769
1.789
1.769
1.764
1.764
1.769
1.789
1.774
1.760
1.764
1.794
1.808
1.764
1.760
1.774
1.760
1.784
1.794
1.799
1.794
1.774
1.774
1.774
1.769
1.774
1.784
1.799
1.828
1.784
1.794
1.808
1.779
1.774
1.769
1.799
1.779
1.794
1.813
1.794
1.794
1.794
1.799
1.784
1.779
1.794
1.789
1.789
1.794
1.784
1.789
1.799
1.789
1.779
1.769
1.804
1.774
1.789
1.799
1.808
1.838
1.794
1.808
1.789
1.794
1.784
1.794
1.804
1.789
1.784
1.779
1.804
1.804
1.769
1.774
1.779
1.789
1.813
1.808
1.823
1.813
1.789
1.784
1.774
1.784
1.784
1.799
1.799
1.789
1.789
1.779
1.799
1.769
1.774
1.774
1.804
1.799
1.843
1.799
1.789
1.779
1.789
1.784
1.799
1.823
1.808
1.799
1.799
1.784
1.804
1.760
1.804
1.804
1.804
1.804
1.784
1.774
1.799
1.789
1.799
1.789
1.794
1.799
1.779
1.769
1.774
1.774
1.813
1.794
1.774
1.769
1.804
1.774
1.764
1.760
1.769
1.764
1.784
1.784
1.789
1.794
1.760
1.760
1.760
1.764
1.764
1.769
1.769
1.799
1.755
1.750
1.784
1.769
1.755
1.750
1.750
1.779
1.750
1.764
1.750
1.760
1.740
1.755
1.745
1.750
1.745
1.755
1.745
1.760
1.745
1.745
1.769
1.760
1.725
1.730
1.740
1.755
1.740
1.750
1.755
1.745
1.750
1.755
1.730
1.725
1.740
1.755
1.745
1.720
1.735
1.740
1.745
1.720
1.730
1.716
1.740
1.720
1.755
1.735
1.755
1.730
1.720
1.716
1.725
1.720
1.725
1.716
1.725
1.725
1.735
1.720
1.740
1.750
1.716
1.706
1.711
1.735
1.711
1.720
1.730
1.735
1.730
1.711
1.706
1.706
1.701
1.706
1.716
1.720
1.720
1.716
1.764
1.716
1.691
1.691
1.740
1.701
1.706
1.730
1.716
1.720
1.711
1.711
1.696
1.696
1.711
1.706
1.696
1.716
1.686
1.691
1.711
1.696
1.686
1.686
1.711
1.701
1.686
1.701
1.716
1.691
1.686
1.681
1.676
1.676
1.696
1.681
1.696
1.691
1.681
1.681
1.720
1.672
1.662
1.667
1.676
1.672
1.681
1.696
1.701
1.696
1.667
1.662
1.676
1.657
1.672
1.681
1.701
1.672
1.672
1.667
1.676
1.652
1.667
1.657
1.686
1.681
1.681
1.657
1.667
1.657
1.657
1.662
1.657
1.667
1.691
1.652
1.657
1.652
1.652
1.637
1.657
1.667
1.672
1.647
1.642
1.662
1.662
1.647
1.647
1.667
1.676
1.657
1.637
1.637
1.637
1.642
1.647
1.652
1.652
1.647
1.652
1.662
1.623
1.637
1.637
1.623
1.637
1.647
1.642
1.667
1.623
1.642
1.628
1.623
1.662
1.637
1.632
1.637
1.618
1.618
1.647
1.623
1.618
1.628
1.623
1.618
1.632
1.618
1.628
1.652
1.632
1.628
1.652
1.628
1.632
1.672
1.662
1.657
1.652
1.657
1.706
1.667
1.662
1.681
1.676
1.672
1.725
1.696
1.701
1.716
1.716
1.725
1.711
1.706
1.720
1.730
1.740
1.750
1.725
1.730
1.769
1.769
1.740
1.740
1.764
1.760
1.750
1.779
1.779
1.833
1.774
1.764
1.769
1.769
1.764
1.779
1.799
1.779
1.760
1.779
1.804
1.784
1.760
1.769
1.769
1.769
1.774
1.784
1.789
1.813
1.779
1.779
1.760
1.760
1.769
1.769
1.779
1.764
1.764
1.764
1.769
1.755
1.750
1.750
1.764
1.760
1.779
1.760
1.769
1.804
1.764
1.760
1.764
1.760
1.769
1.764
1.779
1.779
1.779
1.764
1.799
1.799
1.779
1.769
1.784
1.779
1.813
1.784
1.804
1.779
1.789
1.794
1.804
1.779
1.779
1.789
1.789
1.789
1.813
1.789
1.818
1.804
1.774
1.774
1.789
1.799
1.804
1.813
1.804
1.833
1.789
1.784
1.779
1.784
1.779
1.789
1.823
1.818
1.799
1.789
1.808
1.813
1.804
1.804
1.799
1.804
1.784
1.794
1.794
1.818
1.833
1.799
1.784
1.784
1.774
1.808
1.794
1.789
1.784
1.779
1.804
1.804
1.828
1.769
1.784
1.794
1.784
1.779
1.789
1.789
1.779
1.784
1.784
1.779
1.784
1.789
1.828
1.804
1.784
1.789
1.823
1.804
1.784
1.779
1.799
1.789
1.804
1.804
1.799
1.833
1.813
1.808
1.799
1.789
1.808
1.789
1.799
1.794
1.774
1.789
1.813
1.794
1.774
1.779
1.823
1.794
1.789
1.804
1.808
1.813
1.779
1.784
1.774
1.779
1.774
1.779
1.789
1.794
1.764
1.799
1.808
1.789
1.760
1.769
1.804
1.774
1.769
1.794
1.794
1.818
1.764
1.769
1.760
1.774
1.760
1.779
1.774
1.799
1.750
1.760
1.789
1.779
1.745
1.750
1.764
1.774
1.755
1.764
1.774
1.755
1.755
1.769
1.760
1.745
1.745
1.755
1.755
1.750
1.745
1.774
1.764
1.745
1.740
1.755
1.774
1.745
1.750
1.769
1.769
1.769
1.774
1.730
1.735
1.730
1.735
1.730
1.745
1.760
1.745
1.730
1.760
1.755
1.730
1.711
1.730
1.730
1.730
1.725
1.760
1.764
1.725
1.725
1.716
1.720
1.720
1.735
1.725
1.730
1.711
1.720
1.725
1.725
1.706
1.711
1.720
1.716
1.706
1.716
1.711
1.740
1.745
1.730
1.716
1.720
1.716
1.716
1.711
1.696
1.691
1.706
1.730
1.711
1.691
1.696
1.720
1.701
1.701
1.720
1.720
1.720
1.720
1.686
1.691
1.691
1.691
1.691
1.701
1.730
1.696
1.696
1.720
1.706
1.686
1.676
1.701
1.686
1.696
1.701
1.701
1.701
1.730
1.681
1.681
1.686
1.681
1.672
1.686
1.701
1.691
1.676
1.711
1.686
1.672
1.662
1.696
1.667
1.672
1.672
1.672
1.667
1.672
1.672
1.676
1.676
1.657
1.662
1.696
1.672
1.672
1.667
1.681
1.681
1.647
1.647
1.701
1.676
1.672
1.652
1.657
1.696
1.667
1.662
1.642
1.652
1.647
1.652
1.652
1.657
1.647
1.647
1.667
1.676
1.662
1.647
1.647
1.672
1.642
1.642
1.662
1.681
1.652
1.642
1.637
1.628
1.632
1.642
1.637
1.652
1.628
1.632
1.657
1.632
1.618
1.623
1.628
1.623
1.637
1.623
1.647
1.672
1.652
1.637
1.628
1.613
1.623
1.618
1.637
1.628
1.623
1.608
1.662
1.628
1.613
1.632
1.637
1.623
1.632
1.637
1.637
1.681
1.623
1.628
1.628
1.632
1.637
1.642
1.647
1.652
1.632
1.652
1.711
1.681
1.657
1.662
1.676
1.676
1.676
1.711
1.725
1.730
1.701
1.706
1.706
1.711
1.720
1.745
1.740
1.760
1.745
1.750
1.755
1.745
1.730
1.745
1.760
1.769
1.779
1.769
1.774
1.760
1.755
1.769
1.789
1.779
1.784
1.789
1.774
1.769
1.769
1.745
1.769
1.764
1.779
1.789
1.769
1.760
1.808
1.760
1.769
1.769
1.784
1.784
1.769
1.764
1.755
1.760
1.774
1.764
1.750
1.760
1.794
1.784
1.764
1.745
1.760
1.750
1.779
1.774
1.804
1.779
1.769
1.750
1.755
1.760
1.755
1.764
1.799
1.774
1.769
1.764
1.774
1.784
1.750
1.760
1.774
1.769
1.769
1.779
1.774
1.769
1.760
1.769
1.764
1.789
1.774
1.794
1.779
1.774
1.774
1.779
1.779
1.813
1.769
1.774
1.779
1.779
1.804
1.804
1.823
1.808
1.799
1.779
1.769
1.774
1.764
1.774
1.799
1.789
1.789
1.774
1.789
1.799
1.769
1.769
1.774
1.774
1.813
1.774
1.794
1.804
1.804
1.779
1.769
1.769
1.779
1.774
1.789
1.779
1.799
1.769
1.789
1.813
1.779
1.769
1.813
1.784
1.794
1.779
1.799
1.804
1.774
1.779
1.789
1.779
1.808
1.779
1.789
1.789
1.774
1.794
1.808
1.789
1.799
1.764
1.779
1.789
1.784
1.813
1.799
1.804
1.794
1.794
1.818
1.779
1.774
1.789
1.794
1.794
1.789
1.779
1.789
1.794
1.764
1.779
1.789
1.804
1.779
1.794
1.828
1.804
1.774
1.784
1.774
1.808
1.769
1.794
1.779
1.794
1.789
1.779
1.804
1.808
1.779
1.760
1.769
1.769
1.769
1.774
1.818
1.813
1.774
1.760
1.760
1.760
1.755
1.774
1.779
1.789
1.764
1.755
1.784
1.789
1.760
1.760
1.794
1.760
1.779
1.755
1.779
1.760
1.764
1.769
1.760
1.750
1.760
1.760
1.760
1.750
1.755
1.774
1.764
1.769
1.755
1.735
1.755
1.750
1.760
1.760
1.760
1.779
1.740
1.745
1.740
1.735
1.755
1.735
1.740
1.750
1.745
1.735
1.760
1.789
1.725
1.725
1.730
1.740
1.735
1.745
1.764
1.764
1.735
1.735
1.725
1.730
1.725
1.740
1.730
1.740
1.725
1.740
1.735
1.735
1.716
1.720
1.725
1.720
1.720
1.716
1.725
1.725
1.750
1.735
1.725
1.740
1.716
1.711
1.720
1.750
1.716
1.701
1.730
1.740
1.711
1.696
1.730
1.701
1.711
1.711
1.740
1.720
1.730
1.720
1.701
1.701
1.701
1.716
1.716
1.706
1.725
1.706
1.716
1.720
1.725
1.686
1.701
1.696
1.716
1.701
1.725
1.730
1.711
1.696
1.691
1.691
1.691
1.720
1.720
1.701
1.686
1.676
1.711
1.691
1.676
1.686
1.686
1.696
1.686
1.696
1.691
1.686
1.686
1.696
1.676
1.706
1.686
1.706
1.676
1.691
1.681
1.720
1.686
1.686
1.696
1.691
1.672
1.686
1.681
1.676
1.686
1.686
1.672
1.681
1.711
1.662
1.662
1.667
1.676
1.672
1.662
1.696
1.672
1.676
1.691
1.647
1.667
1.662
1.652
1.676
1.691
1.691
1.662
1.662
1.662
1.657
1.662
1.657
1.667
1.667
1.667
1.662
1.672
1.676
1.652
1.647
1.672
1.657
1.676
1.691
1.676
1.686
1.711
1.667
1.672
1.681
1.662
1.686
1.711
1.696
1.696
1.725
1.676
1.691
1.691
1.701
1.706
1.716
1.735
1.740
1.745
1.740
1.725
1.730
1.755
1.760
1.755
1.784
1.794
1.774
1.764
1.760
1.784
1.794
1.779
1.823
1.789
1.789
1.784
1.813
1.799
1.813
1.804
1.813
1.833
1.794
1.789
1.794
1.799
1.804
1.804
1.808
1.808
1.808
1.789
1.784
1.799
1.799
1.799
1.828
1.823
1.838
1.804
1.784
1.813
1.784
1.799
1.799
1.804
1.813
1.789
1.789
1.799
1.804
1.794
1.779
1.794
1.808
1.804
1.784
1.804
1.804
1.828
1.808
1.799
1.794
1.799
1.808
1.799
1.808
1.784
1.789
1.808
1.808
1.789
1.794
1.804
1.804
1.799
1.818
1.823
1.852
1.813
1.808
1.799
1.833
1.799
1.818
1.823
1.823
1.843
1.823
1.818
1.848
1.799
1.818
1.808
1.828
1.828
1.828
1.833
1.843
1.838
1.818
1.813
1.838
1.813
1.833
1.823
1.823
1.808
1.804
1.818
1.823
1.813
1.818
1.804
1.828
1.813
1.808
1.823
1.823
1.823
1.833
1.813
1.808
1.838
1.818
1.828
1.823
1.813
1.813
1.828
1.828
1.804
1.799
1.823
1.808
1.818
1.838
1.838
1.852
1.828
1.808
1.843
1.808
1.828
1.833
1.833
1.828
1.813
1.828
1.813
1.818
1.823
1.808
1.813
1.857
1.823
1.828
1.833
1.848
1.813
1.818
1.828
1.823
1.818
1.828
1.818
1.833
1.823
1.804
1.818
1.848
1.813
1.828
1.804
1.813
1.813
1.813
1.823
1.838
1.818
1.833
1.823
1.843
1.804
1.813
1.813
1.823
1.828
1.808
1.804
1.862
1.799
1.794
1.823
1.813
1.823
1.813
1.808
1.833
1.818
1.794
1.794
1.823
1.794
1.799
1.808
1.813
1.784
1.799
1.808
1.818
1.784
1.789
1.794
1.789
1.784
1.794
1.799
1.818
1.794
1.784
1.789
1.774
1.779
1.774
1.789
1.789
1.789
1.784
1.808
1.794
1.764
1.769
1.760
1.769
1.779
1.784
1.779
1.789
1.794
1.789
1.769
1.760
1.794
1.764
1.774
1.784
1.769
1.774
1.764
1.804
1.750
1.755
1.764
1.789
1.774
1.764
1.769
1.789
1.779
1.764
1.750
1.764
1.745
1.779
1.760
1.764
1.735
1.774
1.755
1.774
1.745
1.745
1.730
1.750
1.745
1.784
1.760
1.769
1.769
1.740
1.740
1.730
1.735
1.755
1.760
1.745
1.740
1.740
1.735
1.730
1.725
1.720
1.730
1.740
1.740
1.755
1.735
1.740
1.740
1.745
1.760
1.750
1.740
1.755
1.764
1.735
1.730
1.711
1.740
1.745
1.735
1.764
1.740
1.730
1.720
1.711
1.716
1.735
1.725
1.730
1.735
1.711
1.706
1.711
1.725
1.725
1.701
1.711
1.745
1.725
1.711
1.706
1.691
1.716
1.706
1.760
1.725
1.745
1.701
1.706
1.696
1.706
1.696
1.720
1.711
1.711
1.701
1.706
1.725
1.720
1.686
1.706
1.686
1.701
1.720
1.691
1.696
1.720
1.686
1.686
1.691
1.686
1.681
1.696
1.696
1.691
1.681
1.681
1.701
1.701
1.676
1.667
1.667
1.716
1.686
1.681
1.686
1.691
1.696
1.691
1.681
1.711
1.696
1.681
1.681
1.667
1.676
1.667
1.672
1.676
1.662
1.667
1.672
1.667
1.681
1.706
1.691
1.696
1.652
1.662
1.657
1.662
1.662
1.686
1.667
1.681
1.672
1.672
1.681
1.706
1.672
1.676
1.672
1.691
1.676
1.691
1.720
1.725
1.720
1.711
1.706
1.720
1.711
1.720
1.730
1.755
1.740
1.740
1.755
1.794
1.740
1.774
1.740
1.774
1.760
1.808
1.794
1.789
1.789
1.804
1.804
1.784
1.784
1.794
1.804
1.808
1.804
1.789
1.794
1.818
1.789
1.808
1.789
1.823
1.804
1.804
1.833
1.813
1.823
1.818
1.799
1.833
1.804
1.799
1.808
1.808
1.804
1.794
1.804
1.828
1.799
1.784
1.794
1.804
1.804
1.808
1.828
1.838
1.808
1.794
1.823
1.784
1.789
1.804
1.804
1.818
1.799
1.804
1.799
1.818
1.784
1.818
1.784
1.799
1.794
1.804
1.823
1.808
1.799
1.804
1.794
1.804
1.799
1.808
1.813
1.818
1.804
1.823
1.804
1.862
1.804
1.818
1.828
1.823
1.808
1.823
1.828
1.823
1.828
1.857
1.838
1.823
1.813
1.813
1.848
1.823
1.818
1.818
1.823
1.862
1.808
1.799
1.818
1.823
1.808
1.813
1.848
1.872
1.857
1.813
1.808
1.808
1.818
1.808
1.828
1.818
1.823
1.804
1.823
1.848
1.808
1.799
1.813
1.818
1.823
1.823
1.833
1.828
1.848
1.813
1.848
1.818
1.818
1.813
1.818
1.823
1.818
1.808
1.838
1.843
1.808
1.804
1.799
1.813
1.804
1.818
1.838
1.838
1.828
1.833
1.833
1.823
1.808
1.813
1.818
1.828
1.833
1.818
1.808
1.848
1.804
1.808
1.804
1.833
1.823
1.843
1.843
1.848
1.818
1.848
1.804
1.818
1.808
1.813
1.838
1.828
1.818
1.808
1.804
1.872
1.799
1.813
1.799
1.799
1.804
1.813
1.823
1.833
1.818
1.813
1.828
1.794
1.804
1.808
1.794
1.799
1.799
1.799
1.838
1.799
1.789
1.779
1.808
1.789
1.789
1.794
1.828
1.808
1.808
1.794
1.784
1.779
1.784
1.779
1.808
1.799
1.789
1.769
1.804
1.808
1.774
1.769
1.769
1.774
1.764
1.774
1.774
1.804
1.764
1.784
1.789
1.769
1.760
1.760
1.760
1.769
1.760
1.764
1.789
1.784
1.779
1.784
1.745
1.755
1.745
1.760
1.760
1.774
1.779
1.755
1.740
1.750
1.730
1.745
1.735
1.779
1.740
1.740
1.740
1.764
1.745
1.725
1.720
1.730
1.735
1.730
1.730
1.755
1.745
1.716
1.716
1.716
1.716
1.716
1.720
1.735
1.716
1.716
1.716
1.725
1.706
1.711
1.706
1.706
1.711
1.701
1.701
1.711
1.720
1.711
1.706
1.696
1.691
1.686
1.701
1.696
1.701
1.691
1.691
1.716
1.681
1.672
1.686
1.686
1.681
1.701
1.706
1.725
1.676
1.681
1.701
1.667
1.667
1.672
1.676
1.681
1.676
1.681
1.672
1.716
1.662
1.686
1.657
1.672
1.667
1.662
1.672
1.716
1.676
1.672
1.662
1.676
1.667
1.672
1.667
1.686
1.667
1.672
1.662
1.716
1.652
1.662
1.676
1.662
1.652
1.662
1.667
1.676
1.676
1.681
1.662
1.652
1.652
1.657
1.662
1.662
1.667
1.647
1.657
1.696
1.652
1.642
1.662
1.681
1.686
1.667
1.672
1.681
1.681
1.681
1.652
1.642
1.652
1.652
1.657
1.652
1.672
1.647
1.662
1.672
1.662
1.667
1.647
1.642
1.662
1.647
1.662
1.672
1.642
1.637
1.632
1.628
1.637
1.637
1.628
1.652
1.623
1.632
1.628
1.642
1.623
1.623
1.613
1.628
1.623
1.632
1.642
1.632
1.652
1.681
1.632
1.637
1.632
1.637
1.647
1.662
1.652
1.662
1.647
1.662
1.672
1.657
1.667
1.667
1.662
1.676
1.686
1.701
1.716
1.691
1.691
1.696
1.696
1.716
1.706
1.711
1.711
1.725
1.725
1.735
1.716
1.725
1.720
1.725
1.735
1.760
1.764
1.750
1.755
1.745
1.740
1.740
1.750
1.740
1.750
1.764
1.794
1.745
1.750
1.779
1.769
1.740
1.745
1.760
1.745
1.764
1.764
1.764
1.764
1.764
1.769
1.779
1.750
1.745
1.750
1.755
1.750
1.750
1.740
1.774
1.764
1.755
1.745
1.760
1.750
1.769
1.774
1.779
1.769
1.760
1.779
1.750
1.740
1.750
1.750
1.779
1.764
1.769
1.764
1.794
1.750
1.750
1.740
1.764
1.745
1.769
1.799
1.789
1.808
1.779
1.769
1.784
1.784
1.789
1.760
1.774
1.764
1.750
1.769
1.784
1.779
1.750
1.750
1.774
1.755
1.774
1.769
1.764
1.794
1.774
1.804
1.764
1.760
1.764
1.764
1.808
1.774
1.769
1.769
1.779
1.784
1.755
1.755
1.779
1.769
1.784
1.799
1.799
1.804
1.779
1.769
1.764
1.769
1.769
1.769
1.784
1.784
1.789
1.764
1.804
1.794
1.769
1.769
1.784
1.794
1.794
1.779
1.818
1.799
1.784
1.784
1.779
1.779
1.794
1.794
1.794
1.784
1.779
1.784
1.808
1.779
1.784
1.769
1.799
1.769
1.794
1.789
1.789
1.813
1.794
1.784
1.799
1.789
1.779
1.779
1.789
1.779
1.764
1.774
1.789
1.774
1.804
1.794
1.808
1.784
1.779
1.789
1.779
1.779
1.779
1.784
1.789
1.760
1.764
1.769
1.774
1.779
1.764
1.760
1.794
1.784
1.755
1.760
1.774
1.779
1.755
1.769
1.799
1.779
1.764
1.764
1.750
1.755
1.750
1.760
1.769
1.760
1.740
1.750
1.794
1.750
1.735
1.740
1.764
1.730
1.745
1.750
1.755
1.755
1.745
1.735
1.769
1.730
1.735
1.740
1.769
1.745
1.740
1.735
1.764
1.720
1.725
1.720
1.735
1.725
1.745
1.735
1.750
1.745
1.750
1.730
1.725
1.720
1.745
1.730
1.735
1.720
1.720
1.716
1.735
1.720
1.725
1.720
1.740
1.716
1.725
1.745
1.735
1.716
1.716
1.745
1.711
1.711
1.711
1.711
1.711
1.725
1.720
1.716
1.735
1.735
1.701
1.696
1.701
1.716
1.716
1.735
1.735
1.730
1.720
1.706
1.696
1.706
1.696
1.711
1.711
1.711
1.686
1.701
1.720
1.696
1.681
1.696
1.711
1.686
1.691
1.720
1.711
1.691
1.696
1.701
1.691
1.701
1.686
1.686
1.691
1.691
1.672
1.681
1.735
1.676
1.676
1.672
1.701
1.681
1.681
1.686
1.716
1.711
1.696
1.667
1.672
1.686
1.672
1.672
1.691
1.676
1.672
1.672
1.701
1.676
1.662
1.657
1.676
1.662
1.676
1.686
1.681
1.706
1.672
1.657
1.652
1.652
1.662
1.672
1.657
1.652
1.652
1.652
1.667
1.662
1.652
1.642
1.667
1.652
1.647
1.652
1.657
1.642
1.657
1.657
1.657
1.676
1.637
1.652
1.676
1.657
1.628
1.637
1.657
1.652
1.647
1.647
1.647
1.647
1.647
1.647
1.647
1.647
1.652
1.642
1.632
1.628
1.632
1.647
1.647
1.647
1.632
1.628
1.672
1.632
1.647
1.642
1.657
1.642
1.652
1.676
1.686
1.672
1.657
1.657
1.672
1.667
1.672
1.681
1.716
1.681
1.696
1.716
1.730
1.716
1.720
1.691
1.711
1.706
1.730
1.725
1.750
1.735
1.730
1.725
1.735
1.740
1.745
1.755
1.764
1.745
1.789
1.764
1.760
1.755
1.755
1.745
1.764
1.760
1.774
1.769
1.769
1.784
1.789
1.764
1.794
1.769
1.774
1.774
1.774
1.784
1.769
1.774
1.794
1.789
1.794
1.789
1.804
1.779
1.764
1.804
1.789
1.799
1.799
1.779
1.760
1.760
1.760
1.769
1.764
1.794
1.779
1.769
1.799
1.784
1.760
1.755
1.769
1.760
1.774
1.804
1.784
1.799
1.789
1.769
1.789
1.774
1.789
1.789
1.804
1.818
1.784
1.784
1.813
1.779
1.799
1.779
1.799
1.789
1.804
1.804
1.818
1.808
1.818
1.818
1.808
1.799
1.799
1.808
1.804
1.808
1.813
1.794
1.823
1.823
1.789
1.818
1.794
1.799
1.818
1.808
1.828
1.823
1.818
1.799
1.794
1.804
1.794
1.799
1.808
1.818
1.823
1.818
1.828
1.808
1.784
1.804
1.799
1.799
1.804
1.813
1.808
1.818
1.799
1.804
1.799
1.799
1.804
1.799
1.833
1.804
1.794
1.794
1.823
1.799
1.799
1.794
1.799
1.789
1.818
1.813
1.804
1.804
1.808
1.818
1.813
1.799
1.799
1.794
1.813
1.804
1.818
1.804
1.823
1.833
1.794
1.789
1.818
1.804
1.808
1.804
1.833
1.813
1.804
1.828
1.794
1.789
1.828
1.799
1.808
1.804
1.784
1.794
1.838
1.794
1.789
1.779
1.804
1.784
1.794
1.843
1.789
1.823
1.794
1.789
1.789
1.784
1.784
1.789
1.784
1.804
1.784
1.789
1.823
1.804
1.774
1.789
1.784
1.774
1.779
1.794
1.784
1.784
1.794
1.799
1.794
1.769
1.764
1.774
1.789
1.784
1.779
1.779
1.799
1.784
1.755
1.769
1.784
1.764
1.774
1.769
1.764
1.794
1.764
1.750
1.760
1.764
1.760
1.755
1.764
1.755
1.745
1.745
1.799
1.750
1.750
1.740
1.760
1.779
1.750
1.764
1.764
1.764
1.769
1.740
1.745
1.735
1.740
1.760
1.760
1.750
1.745
1.760
1.750
1.730
1.725
1.750
1.735
1.740
1.750
1.755
1.755
1.740
1.755
1.725
1.720
1.740
1.735
1.740
1.740
1.735
1.720
1.720
1.755
1.735
1.725
1.725
1.740
1.745
1.730
1.740
1.716
1.720
1.735
1.725
1.730
1.745
1.706
1.720
1.711
1.745
1.706
1.706
1.730
1.740
1.706
1.701
1.716
1.701
1.706
1.725
1.725
1.725
1.720
1.696
1.691
1.691
1.716
1.701
1.711
1.701
1.725
1.691
1.696
1.686
1.681
1.676
1.701
1.706
1.716
1.716
1.696
1.701
1.686
1.681
1.691
1.681
1.701
1.711
1.691
1.691
1.716
1.676
1.706
1.735
1.676
1.667
1.691
1.667
1.676
1.672
1.686
1.691
1.681
1.686
1.676
1.681
1.657
1.662
1.691
1.681
1.676
1.672
1.681
1.691
1.647
1.657
1.672
1.662
1.681
1.667
1.662
1.667
1.672
1.662
1.652
1.647
1.652
1.662
1.662
1.662
1.637
1.657
1.672
1.672
1.667
1.642
1.662
1.667
1.637
1.662
1.662
1.667
1.652
1.637
1.637
1.642
1.632
1.652
1.647
1.637
1.637
1.637
1.657
1.642
1.632
1.632
1.657
1.657
1.672
1.662
1.676
1.662
1.652
1.667
1.667
1.672
1.686
1.681
1.686
1.725
1.672
1.667
1.716
1.711
1.720
1.701
1.716
1.730
1.735
1.720
1.740
1.730
1.735
1.750
1.735
1.735
1.745
1.769
1.750
1.760
1.764
1.750
1.789
1.784
1.755
1.755
1.769
1.789
1.760
1.779
1.774
1.799
1.774
1.769
1.760
1.779
1.760
1.774
1.808
1.774
1.769
1.774
1.794
1.789
1.750
1.760
1.799
1.755
1.774
1.774
1.760
1.779
1.755
1.764
1.755
1.755
1.774
1.764
1.774
1.774
1.760
1.774
1.789
1.755
1.755
1.745
1.794
1.755
1.779
1.764
1.769
1.760
1.769
1.789
1.769
1.769
1.769
1.774
1.808
1.784
1.769
1.764
1.813
1.779
1.774
1.764
1.794
1.779
1.813
1.789
1.789
1.799
1.804
1.784
1.774
1.774
1.774
1.784
1.794
1.789
1.769
1.818
1.794
1.794
1.764
1.764
1.789
1.774
1.789
1.828
1.808
1.808
1.774
1.769
1.794
1.779
1.784
1.823
1.779
1.789
1.769
1.774
1.808
1.789
1.779
1.794
1.779
1.789
1.779
1.794
1.804
1.799
1.813
1.818
1.789
1.808
1.779
1.794
1.789
1.774
1.794
1.779
1.789
1.774
1.769
1.784
1.804
1.799
1.804
1.804
1.852
1.808
1.789
1.774
1.799
1.789
1.794
1.799
1.808
1.794
1.784
1.774
1.828
1.789
1.789
1.813
1.799
1.804
1.789
1.789
1.779
1.799
1.799
1.784
1.794
1.804
1.774
1.784
1.784
1.774
1.808
1.769
1.789
1.804
1.764
1.764
1.769
1.784
1.808
1.789
1.794
1.789
1.774
1.779
1.760
1.760
1.779
1.784
1.779
1.789
1.774
1.760
1.764
1.764
1.760
1.764
1.774
1.808
1.784
1.779
1.799
1.760
1.764
1.769
1.760
1.764
1.760
1.774
1.750
1.755
1.730
1.735
1.760
1.755
1.760
1.764
1.740
1.745
1.735
1.750
1.760
1.779
1.745
1.760
1.740
1.725
1.725
1.730
1.735
1.750
1.720
1.725
1.760
1.750
1.716
1.706
1.735
1.720
1.730
1.735
1.760
1.725
1.716
1.711
1.730
1.706
1.716
1.720
1.730
1.730
1.711
1.716
1.735
1.711
1.711
1.711
1.716
1.706
1.720
1.706
1.711
1.701
1.755
1.720
1.701
1.711
1.696
1.696
1.701
1.730
1.701
1.701
1.720
1.716
1.701
1.696
1.711
1.691
1.686
1.706
1.691
1.725
1.720
1.691
1.681
1.716
1.676
1.696
1.701
1.706
1.681
1.696
1.711
1.691
1.672
1.701
1.686
1.681
1.686
1.691
1.686
1.706
1.672
1.667
1.667
1.676
1.672
1.676
1.691
1.676
1.662
1.662
1.696
1.667
1.662
1.657
1.672
1.662
1.686
1.667
1.681
1.676
1.681
1.681
1.667
1.652
1.657
1.662
1.672
1.657
1.662
1.657
1.691
1.686
1.647
1.637
1.686
1.657
1.657
1.667
1.652
1.681
1.637
1.652
1.681
1.637
1.642
1.647
1.642
1.667
1.628
1.647
1.652
1.652
1.623
1.623
1.637
1.657
1.628
1.632
1.632
1.637
1.642
1.628
1.618
1.637
1.623
1.642
1.623
1.628
1.623
1.613
1.628
1.632
1.608
1.618
1.623
1.652
1.647
1.628
1.623
1.637
1.632
1.623
1.632
1.637
1.642
1.628
1.652
1.637
1.642
1.672
1.642
1.662
1.657
1.642
1.657
1.662
1.681
1.672
1.672
1.686
1.686
1.691
1.681
1.681
1.691
1.686
1.701
1.706
1.716
1.696
1.730
1.750
1.716
1.711
1.755
1.720
1.730
1.740
1.750
1.750
1.750
1.735
1.730
1.730
1.745
1.740
1.745
1.745
1.730
1.740
1.760
1.750
1.725
1.725
1.740
1.750
1.740
1.755
1.740
1.740
1.730
1.730
1.740
1.730
1.725
1.745
1.740
1.755
1.725
1.735
1.774
1.730
1.716
1.740
1.740
1.740
1.760
1.740
1.750
1.740
1.740
1.755
1.725
1.730
1.735
1.730
1.740
1.735
1.735
1.735
1.745
1.740
1.725
1.735
1.750
1.730
1.740
1.750
1.750
1.779
1.745
1.735
1.755
1.735
1.740
1.745
1.755
1.755
1.755
1.745
1.799
1.764
1.750
1.730
1.755
1.755
1.755
1.755
1.769
1.755
1.760
1.735
1.740
1.740
1.740
1.755
1.745
1.740
1.725
1.730
1.764
1.745
1.725
1.740
1.740
1.740
1.735
1.745
1.764
1.745
1.750
1.760
1.740
1.730
1.730
1.735
1.740
1.764
1.735
1.740
1.769
1.750
1.720
1.750
1.750
1.745
1.745
1.774
1.774
1.784
1.750
1.735
1.730
1.740
1.730
1.745
1.755
1.750
1.735
1.735
1.764
1.750
1.725
1.740
1.750
1.755
1.740
1.755
1.774
1.779
1.730
1.735
1.735
1.735
1.740
1.745
1.750
1.730
1.730
1.755
1.764
1.755
1.725
1.720
1.745
1.735
1.735
1.735
1.735
1.760
1.735
1.740
1.730
1.716
1.720
1.740
1.730
1.735
1.725
1.716
1.740
1.716
1.701
1.720
1.720
1.720
1.720
1.764
1.745
1.725
1.716
1.701
1.701
1.701
1.720
1.720
1.706
1.701
1.701
1.701
1.725
1.720
1.701
1.701
1.706
1.701
1.716
1.701
1.725
1.706
1.701
1.706
1.691
1.696
1.720
1.686
1.696
1.701
1.706
1.686
1.706
1.720
1.725
1.672
1.681
1.681
1.691
1.691
1.716
1.691
1.706
1.706
1.696
1.672
1.672
1.672
1.696
1.686
1.686
1.672
1.716
1.696
1.667
1.662
1.681
1.676
1.691
1.706
1.696
1.686
1.686
1.667
1.672
1.672
1.681
1.681
1.672
1.691
1.657
1.652
1.662
1.711
1.676
1.672
1.681
1.672
1.657
1.672
1.696
1.681
1.681
1.691
1.657
1.647
1.647
1.657
1.657
1.667
1.691
1.642
1.662
1.681
1.657
1.637
1.642
1.676
1.652
1.647
1.676
1.647
1.632
1.642
1.637
1.647
1.642
1.642
1.642
1.657
1.632
1.637
1.652
1.657
1.628
1.632
1.652
1.628
1.623
1.623
1.632
1.647
1.642
1.642
1.632
1.628
1.618
1.623
1.632
1.628
1.618
1.623
1.642
1.618
1.613
1.603
1.613
1.628
1.613
1.623
1.657
1.637
1.618
1.603
1.608
1.608
1.608
1.618
1.632
1.623
1.608
1.603
1.637
1.623
1.603
1.598
1.618
1.618
1.618
1.623
1.637
1.657
1.618
1.623
1.623
1.628
1.632
1.647
1.652
1.647
1.637
1.647
1.672
1.676
1.652
1.662
1.662
1.672
1.672
1.686
1.686
1.696
1.711
1.701
1.696
1.711
1.711
1.711
1.711
1.750
1.711
1.696
1.701
1.745
1.716
1.735
1.720
1.735
1.725
1.730
1.764
1.730
1.720
1.735
1.716
1.716
1.716
1.725
1.755
1.716
1.706
1.716
1.735
1.730
1.720
1.711
1.716
1.740
1.716
1.725
1.711
1.745
1.735
1.716
1.716
1.701
1.706
1.716
1.720
1.720
1.725
1.706
1.730
1.711
1.706
1.706
1.706
1.711
1.725
1.725
1.760
1.740
1.716
1.706
1.701
1.725
1.716
1.720
1.716
1.720
1.740
1.706
1.716
1.720
1.701
1.706
1.716
1.720
1.730
1.720
1.720
1.745
1.735
1.730
1.716
1.720
1.720
1.716
1.720
1.745
1.716
1.716
1.740
1.735
1.720
1.720
1.706
1.730
1.711
1.750
1.730
1.730
1.745
1.711
1.706
1.711
1.706
1.720
1.720
1.720
1.735
1.711
1.730
1.735
1.711
1.701
1.716
1.735
1.730
1.725
1.735
1.720
1.716
1.725
1.716
1.716
1.720
1.725
1.745
1.730
1.716
1.720
1.735
1.750
1.725
1.720
1.730
1.716
1.730
1.720
1.740
1.740
1.740
1.745
1.730
1.720
1.720
1.720
1.725
1.735
1.725
1.725
1.735
1.740
1.716
1.711
1.725
1.720
1.716
1.725
1.745
1.735
1.740
1.740
1.711
1.745
1.711
1.720
1.740
1.735
1.720
1.720
1.720
1.755
1.701
1.720
1.711
1.720
1.730
1.716
1.711
1.720
1.725
1.716
1.706
1.711
1.706
1.706
1.706
1.716
1.730
1.696
1.706
1.730
1.696
1.686
1.696
1.701
1.696
1.691
1.716
1.720
1.706
1.706
1.706
1.691
1.691
1.691
1.711
1.706
1.701
1.686
1.696
1.711
1.686
1.672
1.701
1.696
1.696
1.686
1.706
1.745
1.691
1.676
1.681
1.686
1.681
1.676
1.681
1.696
1.681
1.676
1.681
1.696
1.667
1.667
1.672
1.706
1.662
1.691
1.696
1.711
1.676
1.676
1.676
1.667
1.662
1.667
1.676
1.681
1.681
1.662
1.701
1.672
1.681
1.667
1.657
1.667
1.667
1.672
1.676
1.676
1.672
1.711
1.672
1.657
1.657
1.662
1.667
1.667
1.686
1.657
1.657
1.667
1.647
1.647
1.662
1.672
1.647
1.652
1.672
1.681
1.657
1.652
1.647
1.647
1.647
1.672
1.647
1.647
1.637
1.642
1.662
1.662
1.637
1.628
1.632
1.657
1.642
1.647
1.681
1.647
1.642
1.628
1.662
1.623
1.637
1.647
1.642
1.628
1.637
1.657
1.623
1.628
1.623
1.608
1.618
1.628
1.637
1.618
1.623
1.628
1.608
1.618
1.618
1.618
1.618
1.623
1.642
1.637
1.632
1.613
1.623
1.662
1.628
1.632
1.623
1.637
1.632
1.667
1.637
1.652
1.647
1.667
1.667
1.662
1.647
1.657
1.662
1.696
1.681
1.676
1.676
1.716
1.672
1.681
1.681
1.716
1.706
1.701
1.755
1.730
1.725
1.730
1.711
1.716
1.720
1.740
1.750
1.735
1.740
1.740
1.735
1.764
1.769
1.774
1.740
1.755
1.745
1.750
1.779
1.774
1.779
1.740
1.745
1.764
1.745
1.745
1.764
1.750
1.755
1.735
1.769
1.764
1.740
1.750
1.730
1.740
1.740
1.745
1.774
1.760
1.764
1.750
1.725
1.750
1.740
1.745
1.750
1.750
1.740
1.745
1.730
1.740
1.740
1.740
1.735
1.760
1.760
1.764
1.740
1.745
1.774
1.750
1.745
1.760
1.745
1.774
1.745
1.750
1.735
1.745
1.735
1.779
1.760
1.764
1.740
1.760
1.760
1.760
1.760
1.764
1.760
1.755
1.764
1.740
1.740
1.755
1.750
1.740
1.755
1.745
1.760
1.779
1.745
1.730
1.730
1.755
1.755
1.740
1.794
1.745
1.755
1.735
1.740
1.735
1.745
1.750
1.764
1.760
1.740
1.735
1.760
1.755
1.745
1.730
1.745
1.755
1.750
1.735
1.779
1.760
1.760
1.760
1.745
1.750
1.735
1.745
1.750
1.764
1.735
1.764
1.745
1.760
1.735
1.735
1.760
1.750
1.745
1.769
1.779
1.808
1.750
1.764
1.740
1.745
1.764
1.745
1.750
1.764
1.764
1.760
1.755
1.760
1.740
1.740
1.735
1.760
1.750
1.750
1.760
1.779
1.740
1.735
1.740
1.735
1.740
1.745
1.745
1.779
1.720
1.725
1.730
1.735
1.730
1.735
1.720
1.735
1.725
1.730
1.760
1.750
1.755
1.740
1.735
1.745
1.745
1.725
1.735
1.735
1.725
1.701
1.706
1.735
1.711
1.701
1.720
1.745
1.725
1.711
1.730
1.735
1.716
1.706
1.725
1.730
1.716
1.701
1.725
1.716
1.711
1.706
1.696
1.720
1.716
1.711
1.691
1.706
1.696
1.696
1.701
1.716
1.691
1.696
1.691
1.696
1.691
1.696
1.696
1.706
1.730
1.681
1.686
1.730
1.701
1.686
1.667
1.701
1.696
1.686
1.686
1.691
1.716
1.706
1.696
1.686
1.672
1.672
1.681
1.686
1.676
1.676
1.676
1.691
1.676
1.662
1.686
1.676
1.681
1.676
1.686
1.686
1.696
1.662
1.662
1.662
1.686
1.662
1.676
1.672
1.667
1.642
1.676
1.691
1.662
1.657
1.652
1.667
1.662
1.647
1.686
1.681
1.672
1.657
1.657
1.647
1.647
1.652
1.652
1.662
1.657
1.652
1.652
1.667
1.657
1.632
1.628
1.637
1.642
1.637
1.647
1.681
1.652
1.652
1.686
1.632
1.628
1.642
1.642
1.647
1.632
1.632
1.618
1.657
1.628
1.628
1.623
1.686
1.623
1.632
1.686
1.637
1.652
1.637
1.623
1.632
1.618
1.628
1.623
1.637
1.632
1.618
1.618
1.657
1.613
1.603
1.608
1.608
1.613
1.623
1.632
1.642
1.637
1.608
1.603
1.598
1.598
1.603
1.608
1.608
1.608
1.598
1.608
1.647
1.593
1.584
1.608
1.598
1.603
1.623
1.613
1.632
1.618
1.618
1.647
1.613
1.618
1.628
1.628
1.632
1.637
1.637
1.642
1.657
1.637
1.676
1.652
1.652
1.672
1.672
1.686
1.701
1.676
1.701
1.676
1.681
1.686
1.691
1.701
1.720
1.730
1.716
1.711
1.735
1.706
1.706
1.706
1.725
1.716
1.760
1.750
1.764
1.735
1.730
1.755
1.730
1.730
1.735
1.740
1.745
1.750
1.750
1.769
1.745
1.740
1.789
1.720
1.745
1.725
1.730
1.745
1.735
1.764
1.755
1.760
1.735
1.725
1.745
1.725
1.755
1.716
1.720
1.740
1.750
1.725
1.711
1.716
1.730
1.730
1.740
1.755
1.764
1.735
1.725
1.725
1.716
1.730
1.725
1.730
1.745
1.745
1.740
1.735
1.745
1.779
1.720
1.720
1.725
1.720
1.740
1.740
1.735
1.740
1.750
1.740
1.730
1.725
1.735
1.730
1.740
1.735
1.735
1.745
1.755
1.750
1.740
1.720
1.750
1.730
1.730
1.730
1.750
1.764
1.764
1.750
1.735
1.725
1.735
1.730
1.740
1.735
1.725
1.735
1.764
1.720
1.725
1.711
1.730
1.720
1.730
1.779
1.755
1.750
1.720
1.720
1.716
1.720
1.725
1.730
1.745
1.730
1.720
1.720
1.769
1.755
1.750
1.716
1.730
1.730
1.730
1.750
1.745
1.769
1.750
1.730
1.735
1.730
1.730
1.740
1.735
1.735
1.730
1.750
1.774
1.750
1.720
1.725
1.720
1.725
1.720
1.735
1.774
1.735
1.740
1.740
1.720
1.720
1.716
1.725
1.764
1.725
1.716
1.735
1.745
1.711
1.716
1.720
1.725
1.716
1.720
1.755
1.735
1.725
1.716
1.711
1.716
1.706
1.740
1.716
1.720
1.716
1.716
1.706
1.750
1.701
1.716
1.696
1.706
1.696
1.701
1.725
1.740
1.730
1.701
1.696
1.696
1.696
1.686
1.696
1.706
1.720
1.691
1.696
1.706
1.681
1.676
1.676
1.686
1.676
1.691
1.701
1.701
1.740
1.701
1.696
1.681
1.681
1.676
1.691
1.701
1.691
1.662
1.672
1.725
1.672
1.667
1.676
1.681
1.667
1.667
1.696
1.691
1.691
1.667
1.696
1.667
1.662
1.667
1.701
1.667
1.662
1.667
1.686
1.696
1.657
1.652
1.647
1.657
1.652
1.657
1.681
1.681
1.681
1.657
1.647
1.642
1.657
1.652
1.652
1.672
1.681
1.662
1.647
1.667
1.637
1.637
1.632
1.657
1.637
1.647
1.647
1.691
1.647
1.657
1.686
1.642
1.642
1.662
1.647
1.642
1.618
1.642
1.632
1.642
1.667
1.632
1.637
1.642
1.628
1.642
1.657
1.652
1.637
1.637
1.632
1.628
1.628
1.632
1.623
1.632
1.642
1.632
1.642
1.652
1.632
1.608
1.613
1.647
1.632
1.623
1.642
1.642
1.642
1.618
1.613
1.608
1.618
1.613
1.618
1.628
1.613
1.598
1.608
1.637
1.603
1.603
1.593
1.608
1.598
1.603
1.608
1.618
1.608
1.618
1.647
1.603
1.598
1.598
1.603
1.623
1.603
1.593
1.588
1.632
1.593
1.618
1.579
1.603
1.588
1.608
1.608
1.603
1.613
1.623
1.588
1.588
1.579
1.588
1.584
1.598
1.588
1.598
1.598
1.603
1.584
1.569
1.569
1.584
1.574
1.584
1.593
1.603
1.598
1.579
1.584
1.579
1.579
1.593
1.588
1.593
1.588
1.584
1.593
1.647
1.593
1.598
1.618
1.613
1.623
1.608
1.632
1.637
1.632
1.642
1.672
1.632
1.642
1.642
1.657
1.662
1.657
1.657
1.662
1.691
1.672
1.667
1.706
1.686
1.681
1.706
1.711
1.735
1.760
1.716
1.701
1.706
1.730
1.711
1.711
1.725
1.716
1.706
1.711
1.750
1.725
1.711
1.701
1.745
1.711
1.725
1.730
1.764
1.735
1.720
1.730
1.716
1.711
1.716
1.716
1.725
1.716
1.716
1.706
1.740
1.706
1.701
1.696
1.725
1.696
1.706
1.711
1.716
1.725
1.720
1.720
1.696
1.701
1.701
1.711
1.720
1.745
1.701
1.716
1.735
1.701
1.716
1.711
1.725
1.706
1.711
1.779
1.730
1.760
1.711
1.716
1.711
1.716
1.755
1.725
1.716
1.716
1.716
1.730
1.735
1.720
1.716
1.711
1.730
1.716
1.725
1.735
1.755
1.711
1.716
1.716
1.711
1.716
1.725
1.716
1.730
1.711
1.716
1.750
1.725
1.711
1.701
1.696
1.711
1.735
1.725
1.720
1.725
1.735
1.740
1.730
1.711
1.706
1.735
1.720
1.730
1.720
1.740
1.711
1.725
1.706
1.716
1.720
1.725
1.711
1.750
1.730
1.760
1.730
1.720
1.740
1.725
1.720
1.725
1.720
1.730
1.730
1.750
1.745
1.755
1.740
1.716
1.716
1.764
1.720
1.735
1.750
1.740
1.789
1.735
1.730
1.716
1.725
1.735
1.735
1.745
1.760
1.720
1.730
1.745
1.735
1.740
1.716
1.720
1.716
1.730
1.730
1.720
1.725
1.764
1.730
1.725
1.711
1.720
1.725
1.725
1.716
1.701
1.706
1.750
1.701
1.706
1.706
1.716
1.701
1.740
1.711
1.735
1.730
1.711
1.706
1.706
1.696
1.701
1.696
1.711
1.716
1.701
1.701
1.730
1.716
1.696
1.681
1.696
1.686
1.725
1.711
1.716
1.725
1.716
1.681
1.686
1.681
1.696
1.696
1.701
1.701
1.691
1.676
1.701
1.672
1.681
1.676
1.686
1.681
1.691
1.686
1.686
1.686
1.691
1.696
1.681
1.681
1.672
1.681
1.681
1.691
1.672
1.676
1.696
1.676
1.657
1.662
1.691
1.686
1.696
1.686
1.701
1.711
1.667
1.686
1.657
1.657
1.662
1.662
1.676
1.662
1.657
1.662
1.691
1.681
1.652
1.642
1.672
1.681
1.662
1.667
1.691
1.672
1.657
1.647
1.657
1.647
1.652
1.667
1.667
1.647
1.647
1.637
1.686
1.637
1.652
1.642
1.647
1.642
1.652
1.676
1.657
1.652
1.662
1.642
1.642
1.647
1.672
1.632
1.642
1.657
1.647
1.623
1.672
1.642
1.637
1.623
1.628
1.623
1.642
1.652
1.628
1.647
1.652
1.628
1.618
1.618
1.618
1.632
1.628
1.662
1.608
1.613
1.662
1.628
1.608
1.613
1.657
1.618
1.613
1.657
1.632
1.632
1.618
1.613
1.608
1.613
1.608
1.613
1.618
1.613
1.608
1.603
1.637
1.598
1.593
1.613
1.603
1.593
1.618
1.603
1.603
1.618
1.588
1.584
1.598
1.584
1.603
1.603
1.613
1.593
1.603
1.598
1.608
1.579
1.579
1.588
1.593
1.584
1.632
1.598
1.613
1.603
1.603
1.584
1.584
1.579
1.593
1.579
1.588
1.593
1.584
1.574
1.598
1.593
1.579
1.618
1.579
1.569
1.603
1.579
1.584
1.623
1.584
1.574
1.564
1.564
1.569
1.564
1.569
1.598
1.584
1.574
1.588
1.584
1.559
1.559
1.569
1.569
1.579
1.588
1.603
1.613
1.584
1.588
1.584
1.588
1.593
1.608
1.608
1.618
1.598
1.608
1.672
1.618
1.623
1.652
1.637
1.632
1.657
1.642
1.667
1.711
1.672
1.686
1.706
1.676
1.681
1.681
1.720
1.691
1.691
1.691
1.769
1.701
1.701
1.711
1.725
1.701
1.725
1.745
1.735
1.740
1.740
1.711
1.720
1.711
1.740
1.720
1.735
1.735
1.730
1.720
1.760
1.730
1.720
1.701
1.725
1.720
1.720
1.725
1.740
1.730
1.755
1.711
1.711
1.711
1.716
1.716
1.716
1.720
1.711
1.711
1.750
1.716
1.706
1.711
1.716
1.711
1.720
1.725
1.716
1.725
1.720
1.774
1.720
1.720
1.725
1.730
1.730
1.735
1.711
1.750
1.750
1.730
1.716
1.720
1.740
1.725
1.735
1.764
1.760
1.764
1.735
1.740
1.730
1.730
1.760
1.745
1.755
1.740
1.725
1.750
1.769
1.730
1.730
1.725
1.774
1.730
1.745
1.760
1.764
1.755
1.740
1.735
1.735
1.735
1.755
1.730
1.745
1.740
1.745
1.740
1.764
1.740
1.730
1.725
1.735
1.725
1.740
1.730
1.745
1.769
1.760
1.755
1.755
1.730
1.740
1.735
1.745
1.750
1.745
1.769
1.769
1.755
1.725
1.725
1.784
1.745
1.750
1.784
1.769
1.769
1.760
1.745
1.740
1.745
1.750
1.760
1.745
1.769
1.740
1.735
1.769
1.760
1.764
1.750
1.745
1.740
1.740
1.779
1.774
1.764
1.735
1.740
1.750
1.735
1.745
1.750
1.750
1.735
1.730
1.745
1.745
1.730
1.725
1.720
1.735
1.725
1.735
1.745
1.735
1.730
1.725
1.720
1.735
1.720
1.730
1.730
1.740
1.740
1.774
1.725
1.750
1.740
1.720
1.735
1.730
1.720
1.725
1.730
1.725
1.750
1.730
1.735
1.725
1.750
1.711
1.711
1.720
1.720
1.720
1.711
1.745
1.745
1.696
1.701
1.740
1.706
1.711
1.725
1.730
1.735
1.711
1.701
1.696
1.696
1.691
1.725
1.706
1.720
1.701
1.716
1.735
1.701
1.681
1.686
1.691
1.706
1.701
1.706
1.701
1.716
1.676
1.681
1.681
1.706
1.686
1.686
1.716
1.681
1.681
1.676
1.696
1.672
1.672
1.686
1.681
1.686
1.696
1.686
1.686
1.676
1.701
1.686
1.672
1.681
1.681
1.691
1.681
1.696
1.652
1.647
1.681
1.681
1.667
1.667
1.672
1.652
1.672
1.667
1.686
1.657
1.676
1.681
1.657
1.647
1.652
1.657
1.662
1.662
1.657
1.642
1.681
1.652
1.681
1.642
1.647
1.652
1.647
1.657
1.657
1.672
1.637
1.647
1.657
1.642
1.637
1.647
1.642
1.662
1.637
1.642
1.662
1.642
1.628
1.623
1.632
1.632
1.628
1.637
1.632
1.662
1.618
1.623
1.632
1.628
1.642
1.657
1.637
1.628
1.628
1.618
1.657
1.613
1.608
1.618
1.632
1.623
1.642
1.637
1.642
1.632
1.608
1.613
1.618
1.623
1.623
1.637
1.628
1.608
1.603
1.588
1.632
1.613
1.608
1.618
1.628
1.598
1.598
1.603
1.618
1.618
1.618
1.623
1.603
1.588
1.593
1.613
1.593
1.603
1.598
1.598
1.637
1.603
1.579
1.569
1.584
1.579
1.584
1.593
1.608
1.603
1.598
1.574
1.574
1.579
1.569
1.593
1.584
1.588
1.569
1.574
1.598
1.574
1.579
1.564
1.569
1.588
1.569
1.564
1.588
1.569
1.579
1.588
1.559
1.593
1.559
1.564
1.559
1.564
1.574
1.564
1.564
1.584
1.544
1.544
1.593
1.544
1.559
1.559
1.579
1.579
1.549
1.544
1.544
1.540
1.549
1.544
1.554
1.564
1.554
1.554
1.564
1.559
1.559
1.544
1.564
1.564
1.574
1.598
1.579
1.574
1.593
1.579
1.584
1.579
1.593
1.588
1.603
1.608
1.642
1.613
1.632
1.628
1.618
1.623
1.657
1.632
1.642
1.647
1.657
1.667
1.681
1.676
1.686
1.662
1.667
1.686
1.676
1.691
1.696
1.696
1.716
1.711
1.711
1.681
1.701
1.720
1.696
1.720
1.720
1.740
1.711
1.701
1.691
1.716
1.696
1.720
1.711
1.720
1.691
1.701
1.750
1.711
1.686
1.696
1.711
1.696
1.706
1.716
1.735
1.711
1.720
1.691
1.696
1.691
1.696
1.706
1.711
1.701
1.696
1.691
1.740
1.696
1.691
1.681
1.696
1.730
1.725
1.725
1.706
1.701
1.701
1.706
1.701
1.711
1.720
1.725
1.716
1.711
1.706
1.686
1.725
1.711
1.716
1.716
1.716
1.706
1.730
1.716
1.716
1.720
1.755
1.730
1.716
1.711
1.711
1.740
1.720
1.716
1.716
1.720
1.764
1.755
1.725
1.716
1.716
1.716
1.716
1.755
1.735
1.764
1.716
1.720
1.716
1.716
1.711
1.725
1.720
1.720
1.720
1.730
1.725
1.745
1.716
1.711
1.720
1.716
1.720
1.750
1.735
1.725
1.740
1.706
1.706
1.730
1.716
1.720
1.735
1.725
1.725
1.720
1.740
1.755
1.720
1.735
1.740
1.730
1.740
1.730
1.730
1.745
1.760
1.745
1.760
1.730
1.735
1.740
1.745
1.755
1.735
1.735
1.764
1.745
1.760
1.716
1.740
1.725
1.735
1.760
1.750
1.764
1.760
1.730
1.735
1.725
1.725
1.769
1.740
1.745
1.745
1.735
1.764
1.745
1.720
1.716
1.730
1.735
1.735
1.745
1.745
1.760
1.725
1.725
1.720
1.725
1.730
1.745
1.764
1.720
1.720
1.725
1.730
1.755
1.711
1.720
1.720
1.720
1.735
1.735
1.730
1.725
1.711
1.720
1.716
1.711
1.720
1.711
1.720
1.720
1.716
1.740
1.740
1.716
1.696
1.696
1.711
1.711
1.716
1.716
1.730
1.740
1.716
1.711
1.735
1.696
1.701
1.701
1.720
1.706
1.716
1.681
1.730
1.720
1.696
1.681
1.720
1.691
1.696
1.691
1.730
1.716
1.706
1.686
1.691
1.686
1.691
1.686
1.691
1.696
1.696
1.681
1.720
1.725
1.686
1.672
1.686
1.691
1.681
1.696
1.696
1.696
1.730
1.681
1.672
1.681
1.686
1.681
1.686
1.696
1.691
1.681
1.691
1.716
1.667
1.667
1.681
1.686
1.686
1.676
1.676
1.706
1.686
1.691
1.667
1.672
1.667
1.701
1.676
1.681
1.667
1.662
1.681
1.667
1.676
1.657
1.681
1.667
1.667
1.672
1.662
1.696
1.686
1.662
1.662
1.652
1.657
1.652
1.667
1.662
1.667
1.662
1.691
1.686
1.647
1.652
1.657
1.657
1.662
1.676
1.676
1.676
1.672
1.642
1.647
1.642
1.657
1.652
1.662
1.662
1.637
1.637
1.657
1.657
1.628
1.637
1.647
1.662
1.642
1.642
1.652
1.637
1.642
1.662
1.637
1.637
1.632
1.647
1.632
1.647
1.662
1.642
1.647
1.652
1.623
1.623
1.632
1.662
1.628
1.632
1.632
1.662
1.637
1.632
1.632
1.623
1.613
1.632
1.623
1.632
1.632
1.637
1.632
1.652
1.647
1.623
1.618
1.608
1.613
1.618
1.618
1.632
1.628
1.637
1.613
1.603
1.613
1.632
1.613
1.603
1.608
1.598
1.628
1.632
1.618
1.593
1.608
1.598
1.603
1.608
1.618
1.618
1.613
1.618
1.642
1.593
1.598
1.613
1.618
1.613
1.608
1.608
1.637
1.618
1.608
1.608
1.628
1.623
1.647
1.642
1.647
1.706
1.637
1.642
1.672
1.647
1.667
1.686
1.676
1.672
1.672
1.691
1.686
1.691
1.706
1.691
1.711
1.711
1.725
1.745
1.735
1.755
1.725
1.730
1.730
1.750
1.735
1.740
1.735
1.755
1.745
1.769
1.769
1.774
1.769
1.760
1.750
1.755
1.750
1.769
1.774
1.755
1.760
1.769
1.769
1.779
1.745
1.750
1.764
1.760
1.769
1.755
1.769
1.804
1.740
1.740
1.760
1.774
1.794
1.769
1.779
1.784
1.750
1.769
1.755
1.750
1.764
1.760
1.784
1.760
1.764
1.755
1.784
1.789
1.755
1.755
1.760
1.769
1.794
1.779
1.789
1.804
1.764
1.794
1.755
1.760
1.755
1.769
1.764
1.779
1.794
1.774
1.774
1.769
1.750
1.774
1.764
1.789
1.789
1.784
1.843
1.799
1.769
1.779
1.764
1.804
1.784
1.789
1.794
1.794
1.794
1.779
1.769
1.774
1.764
1.779
1.774
1.789
1.774
1.789
1.808
1.769
1.779
1.789
1.784
1.828
1.774
1.769
1.774
1.779
1.799
1.760
1.784
1.813
1.804
1.764
1.774
1.769
1.794
1.769
1.794
1.784
1.804
1.774
1.774
1.769
1.774
1.774
1.808
1.794
1.789
1.769
1.789
1.838
1.779
1.764
1.823
1.784
1.799
1.789
1.794
1.784
1.769
1.774
1.779
1.774
1.774
1.794
1.784
1.789
1.769
1.779
1.804
1.789
1.769
1.794
1.774
1.779
1.774
1.784
1.779
1.789
1.784
1.823
1.779
1.779
1.764
1.779
1.779
1.784
1.779
1.799
1.784
1.808
1.755
1.764
1.774
1.760
1.760
1.799
1.784
1.779
1.823
1.789
1.799
1.784
1.774
1.755
1.764
1.779
1.760
1.755
1.760
1.784
1.755
1.740
1.755
1.774
1.745
1.750
1.755
1.784
1.769
1.750
1.774
1.745
1.745
1.745
1.750
1.745
1.740
1.745
1.750
1.769
1.740
1.725
1.740
1.730
1.730
1.745
1.740
1.740
1.740
1.750
1.750
1.725
1.750
1.730
1.735
1.740
1.711
1.725
1.735
1.740
1.711
1.706
1.725
1.730
1.730
1.740
1.745
1.755
1.716
1.716
1.716
1.725
1.711
1.720
1.720
1.725
1.716
1.725
1.720
1.750
1.725
1.745
1.711
1.720
1.720
1.711
1.716
1.720
1.725
1.725
1.716
1.706
1.730
1.701
1.706
1.711
1.720
1.701
1.706
1.730
1.696
1.681
1.691
1.745
1.696
1.706
1.711
1.706
1.696
1.701
1.706
1.681
1.686
1.686
1.725
1.696
1.701
1.686
1.696
1.711
1.686
1.672
1.681
1.686
1.681
1.706
1.686
1.696
1.711
1.676
1.681
1.691
1.676
1.676
1.681
1.676
1.676
1.662
1.696
1.701
1.667
1.681
1.657
1.667
1.662
1.657
1.686
1.701
1.691
1.662
1.662
1.652
1.652
1.667
1.676
1.667
1.662
1.657
1.662
1.662
1.642
1.642
1.647
1.686
1.676
1.681
1.657
1.662
1.647
1.662
1.642
1.672
1.657
1.681
1.652
1.652
1.632
1.623
1.623
1.667
1.647
1.652
1.637
1.637
1.672
1.628
1.647
1.642
1.647
1.647
1.647
1.628
1.642
1.623
1.632
1.642
1.628
1.623
1.652
1.657
1.632
1.608
1.623
1.632
1.632
1.632
1.686
1.637
1.642
1.613
1.618
1.613
1.618
1.623
1.632
1.632
1.613
1.608
1.618
1.618
1.603
1.603
1.603
1.618
1.608
1.628
1.603
1.603
1.593
1.603
1.608
1.603
1.593
1.613
1.598
1.613
1.588
1.598
1.603
1.628
1.588
1.598
1.588
1.603
1.632
1.603
1.603
1.632
1.618
1.642
1.608
1.608
1.603
1.618
1.623
1.637
1.632
1.628
1.632
1.662
1.657
1.642
1.652
1.686
1.696
1.696
1.686
1.696
1.696
1.691
1.711
1.686
1.691
1.716
1.711
1.716
1.725
1.701
1.720
1.789
1.740
1.730
1.730
1.735
1.745
1.745
1.779
1.764
1.750
1.769
1.755
1.745
1.769
1.760
1.769
1.764
1.774
1.789
1.764
1.760
1.760
1.745
1.760
1.760
1.769
1.769
1.774
1.784
1.755
1.755
1.755
1.755
1.755
1.760
1.764
1.779
1.779
1.750
1.760
1.784
1.750
1.779
1.750
1.764
1.750
1.769
1.769
1.774
1.784
1.784
1.779
1.774
1.760
1.779
1.764
1.779
1.764
1.779
1.774
1.808
1.784
1.769
1.760
1.799
1.764
1.784
1.794
1.789
1.823
1.784
1.774
1.774
1.774
1.804
1.779
1.794
1.794
1.794
1.789
1.813
1.794
1.774
1.779
1.789
1.799
1.799
1.794
1.818
1.808
1.794
1.784
1.784
1.789
1.784
1.799
1.808
1.784
1.779
1.789
1.799
1.799
1.784
1.789
1.784
1.774
1.799
1.794
1.784
1.779
1.784
1.794
1.794
1.799
1.789
1.789
1.794
1.789
1.769
1.779
1.818
1.804
1.784
1.774
1.804
1.784
1.804
1.808
1.808
1.799
1.804
1.794
1.784
1.784
1.799
1.794
1.808
1.794
1.794
1.808
1.808
1.789
1.828
1.774
1.813
1.828
1.799
1.799
1.833
1.799
1.789
1.784
1.804
1.784
1.794
1.799
1.799
1.799
1.784
1.789
1.823
1.779
1.774
1.774
1.784
1.789
1.779
1.813
1.789
1.779
1.774
1.779
1.774
1.774
1.774
1.794
1.794
1.774
1.784
1.784
1.784
1.764
1.760
1.769
1.769
1.764
1.774
1.784
1.789
1.779
1.779
1.789
1.764
1.764
1.764
1.769
1.774
1.769
1.764
1.755
1.779
1.755
1.764
1.760
1.760
1.760
1.774
1.774
1.794
1.750
1.764
1.750
1.755
1.745
1.750
1.750
1.789
1.755
1.769
1.750
1.813
1.740
1.745
1.730
1.764
1.745
1.755
1.755
1.764
1.764
1.750
1.730
1.740
1.730
1.750
1.779
1.745
1.735
1.730
1.730
1.745
1.725
1.725
1.750
1.735
1.740
1.730
1.750
1.755
1.745
1.740
1.725
1.725
1.735
1.764
1.730
1.716
1.740
1.720
1.711
1.730
1.735
1.720
1.711
1.716
1.720
1.735
1.735
1.735
1.725
1.716
1.716
1.711
1.706
1.706
1.706
1.720
1.720
1.711
1.711
1.730
1.711
1.716
1.691
1.706
1.725
1.725
1.745
1.716
1.691
1.725
1.686
1.696
1.691
1.701
1.725
1.706
1.696
1.696
1.686
1.716
1.681
1.711
1.676
1.696
1.696
1.701
1.681
1.701
1.711
1.711
1.701
1.691
1.672
1.676
1.681
1.711
1.681
1.681
1.691
1.686
1.667
1.662
1.657
1.686
1.691
1.681
1.686
1.691
1.686
1.667
1.681
1.662
1.662
1.667
1.676
1.672
1.676
1.657
1.667
1.686
1.657
1.652
1.657
1.667
1.676
1.667
1.672
1.681
1.657
1.657
1.652
1.652
1.667
1.657
1.662
1.662
1.647
1.647
1.642
1.657
1.647
1.632
1.632
1.672
1.657
1.657
1.647
1.657
1.667
1.647
1.637
1.637
1.642
1.672
1.637
1.647
1.647
1.623
1.613
1.647
1.637
1.642
1.628
1.642
1.642
1.647
1.637
1.637
1.632
1.647
1.623
1.657
1.618
1.642
1.628
1.637
1.608
1.618
1.613
1.652
1.618
1.623
1.632
1.613
1.603
1.647
1.637
1.632
1.603
1.608
1.613
1.603
1.598
1.608
1.608
1.613
1.613
1.608
1.603
1.632
1.598
1.593
1.588
1.598
1.613
1.608
1.628
1.628
1.618
1.618
1.623
1.618
1.632
1.632
1.647
1.647
1.652
1.647
1.657
1.686
1.662
1.657
1.686
1.681
1.676
1.706
1.696
1.711
1.711
1.725
1.740
1.716
1.716
1.725
1.725
1.745
1.745
1.735
1.735
1.769
1.779
1.740
1.760
1.774
1.760
1.760
1.789
1.808
1.774
1.769
1.769
1.764
1.755
1.779
1.774
1.784
1.764
1.774
1.774
1.813
1.750
1.764
1.750
1.774
1.774
1.779
1.774
1.808
1.750
1.789
1.755
1.755
1.804
1.779
1.774
1.760
1.760
1.764
1.750
1.764
1.764
1.760
1.760
1.764
1.760
1.794
1.769
1.769
1.769
1.784
1.843
1.789
1.789
1.784
1.794
1.774
1.779
1.804
1.774
1.789
1.794
1.789
1.794
1.779
1.818
1.774
1.794
1.784
1.799
1.794
1.789
1.784
1.769
1.774
1.813
1.789
1.784
1.764
1.769
1.823
1.789
1.774
1.769
1.794
1.794
1.779
1.808
1.813
1.779
1.794
1.774
1.784
1.799
1.789
1.784
1.789
1.779
1.799
1.774
1.823
1.774
1.784
1.764
1.799
1.808
1.784
1.779
1.804
1.779
1.799
1.774
1.779
1.774
1.784
1.794
1.804
1.789
1.799
1.789
1.804
1.769
1.769
1.774
1.789
1.804
1.789
1.794
1.833
1.804
1.808
1.799
1.784
1.808
1.794
1.799
1.799
1.784
1.804
1.794
1.804
1.804
1.794
1.804
1.833
1.804
1.808
1.799
1.828
1.804
1.794
1.799
1.789
1.784
1.789
1.794
1.799
1.823
1.794
1.789
1.813
1.784
1.794
1.769
1.789
1.794
1.799
1.799
1.843
1.799
1.794
1.774
1.779
1.794
1.779
1.789
1.823
1.784
1.789
1.769
1.808
1.769
1.769
1.764
1.789
1.764
1.779
1.769
1.799
1.794
1.789
1.789
1.779
1.764
1.769
1.769
1.779
1.774
1.755
1.764
1.784
1.760
1.755
1.755
1.764
1.750
1.760
1.794
1.794
1.784
1.794
1.750
1.750
1.760
1.750
1.769
1.760
1.779
1.750
1.764
1.764
1.774
1.745
1.745
1.750
1.764
1.760
1.764
1.769
1.745
1.745
1.750
1.764
1.745
1.745
1.760
1.755
1.750
1.735
1.735
1.745
1.730
1.735
1.725
1.779
1.735
1.760
1.774
1.730
1.725
1.745
1.735
1.735
1.745
1.760
1.730
1.745
1.735
1.735
1.711
1.750
1.764
1.735
1.711
1.740
1.740
1.745
1.740
1.750
1.735
1.750
1.720
1.716
1.716
1.725
1.716
1.730
1.711
1.716
1.706
1.725
1.720
1.730
1.696
1.716
1.701
1.730
1.730
1.735
1.716
1.701
1.701
1.711
1.701
1.706
1.701
1.716
1.711
1.706
1.696
1.740
1.716
1.706
1.701
1.696
1.716
1.696
1.711
1.701
1.696
1.696
1.691
1.696
1.706
1.696
1.716
1.696
1.711
1.696
1.667
1.711
1.676
1.686
1.696
1.681
1.672
1.686
1.725
1.691
1.672
1.720
1.686
1.686
1.672
1.686
1.676
1.691
1.672
1.657
1.676
1.701
1.662
1.676
1.667
1.686
1.662
1.672
1.676
1.701
1.676
1.667
1.681
1.662
1.652
1.686
1.662
1.662
1.662
1.662
1.652
1.686
1.647
1.657
1.637
1.652
1.672
1.652
1.672
1.681
1.672
1.662
1.637
1.637
1.647
1.637
1.647
1.662
1.642
1.628
1.657
1.662
1.632
1.628
1.628
1.642
1.628
1.632
1.652
1.642
1.642
1.681
1.652
1.632
1.628
1.628
1.632
1.628
1.632
1.637
1.623
1.647
1.637
1.608
1.618
1.642
1.618
1.618
1.637
1.637
1.657
1.623
1.613
1.608
1.608
1.618
1.618
1.628
1.623
1.613
1.623
1.652
1.618
1.618
1.608
1.628
1.628
1.637
1.652
1.686
1.657
1.647
1.642
1.652
1.657
1.681
1.676
1.716
1.681
1.676
1.676
1.720
1.706
1.706
1.701
1.720
1.711
1.720
1.725
1.750
1.740
1.750
1.760
1.745
1.740
1.750
1.760
1.760
1.755
1.760
1.779
1.789
1.760
1.760
1.794
1.784
1.774
1.799
1.808
1.808
1.813
1.774
1.784
1.774
1.779
1.789
1.789
1.804
1.799
1.774
1.804
1.804
1.789
1.774
1.779
1.808
1.784
1.789
1.808
1.799
1.804
1.784
1.794
1.789
1.779
1.789
1.794
1.804
1.789
1.789
1.779
1.813
1.789
1.784
1.779
1.789
1.784
1.799
1.794
1.808
1.804
1.857
1.813
1.818
1.794
1.808
1.813
1.823
1.799
1.808
1.804
1.848
1.804
1.838
1.799
1.833
1.843
1.828
1.843
1.857
1.838
1.857
1.823
1.823
1.818
1.823
1.823
1.828
1.838
1.838
1.818
1.872
1.852
1.843
1.818
1.833
1.833
1.818
1.862
1.852
1.838
1.838
1.852
1.857
1.828
1.813
1.828
1.823
1.857
1.813
1.823
1.862
1.852
1.808
1.813
1.833
1.823
1.818
1.857
1.848
1.848
1.833
1.828
1.808
1.808
1.818
1.823
1.833
1.857
1.813
1.818
1.852
1.813
1.813
1.808
1.852
1.828
1.843
1.848
1.852
1.838
1.823
1.823
1.828
1.823
1.838
1.828
1.843
1.833
1.828
1.833
1.862
1.848
1.838
1.813
1.857
1.823
1.833
1.862
1.857
1.872
1.843
1.828
1.823
1.818
1.843
1.838
1.833
1.843
1.828
1.818
1.823
1.813
1.823
1.808
1.838
1.828
1.857
1.843
1.823
1.823
1.828
1.813
1.823
1.833
1.838
1.843
1.823
1.838
1.804
1.799
1.857
1.833
1.828
1.838
1.818
1.823
1.808
1.833
1.852
1.818
1.823
1.867
1.808
1.804
1.808
1.804
1.808
1.808
1.808
1.799
1.828
1.808
1.784
1.779
1.804
1.789
1.838
1.818
1.833
1.799
1.784
1.784
1.789
1.789
1.789
1.794
1.804
1.813
1.774
1.784
1.833
1.774
1.779
1.774
1.789
1.804
1.794
1.784
1.799
1.769
1.789
1.774
1.784
1.769
1.774
1.774
1.789
1.784
1.774
1.764
1.799
1.764
1.760
1.755
1.789
1.755
1.760
1.774
1.784
1.774
1.779
1.769
1.755
1.750
1.769
1.764
1.764
1.774
1.750
1.755
1.764
1.764
1.745
1.750
1.755
1.745
1.755
1.769
1.808
1.755
1.740
1.755
1.740
1.745
1.740
1.755
1.750
1.755
1.735
1.735
1.750
1.750
1.764
1.725
1.730
1.725
1.725
1.740
1.750
1.779
1.730
1.725
1.720
1.735
1.735
1.730
1.750
1.711
1.720
1.725
1.725
1.706
1.711
1.696
1.720
1.706
1.725
1.716
1.716
1.716
1.720
1.716
1.725
1.716
1.711
1.701
1.745
1.711
1.711
1.696
1.716
1.706
1.716
1.681
1.696
1.701
1.696
1.701
1.706
1.696
1.716
1.686
1.681
1.701
1.681
1.681
1.706
1.691
1.676
1.686
1.706
1.725
1.676
1.667
1.676
1.672
1.681
1.691
1.696
1.720
1.662
1.672
1.662
1.667
1.667
1.691
1.676
1.676
1.657
1.662
1.691
1.662
1.652
1.657
1.657
1.662
1.657
1.662
1.686
1.647
1.652
1.637
1.647
1.652
1.642
1.647
1.657
1.647
1.642
1.652
1.662
1.637
1.642
1.632
1.652
1.632
1.642
1.642
1.662
1.652
1.672
1.647
1.637
1.623
1.637
1.642
1.637
1.637
1.662
1.623
1.647
1.652
1.628
1.618
1.623
1.623
1.628
1.647
1.642
1.652
1.618
1.613
1.613
1.608
1.613
1.618
1.623
1.628
1.603
1.613
1.667
1.613
1.598
1.598
1.608
1.618
1.598
1.618
1.642
1.623
1.608
1.603
1.603
1.637
1.598
1.608
1.608
1.608
1.603
1.608
1.632
1.623
1.598
1.608
1.618
1.608
1.613
1.647
1.642
1.652
1.632
1.652
1.642
1.632
1.642
1.657
1.667
1.662
1.686
1.667
1.701
1.676
1.676
1.691
1.706
1.696
1.711
1.735
1.745
1.755
1.720
1.720
1.730
1.735
1.745
1.745
1.769
1.760
1.755
1.760
1.789
1.760
1.760
1.760
1.774
1.764
1.789
1.794
1.794
1.769
1.769
1.784
1.774
1.769
1.779
1.779
1.784
1.799
1.799
1.774
1.808
1.789
1.764
1.779
1.779
1.779
1.813
1.799
1.784
1.784
1.779
1.794
1.799
1.804
1.779
1.799
1.789
1.804
1.799
1.784
1.813
1.789
1.774
1.794
1.794
1.804
1.818
1.808
1.823
1.813
1.799
1.804
1.794
1.804
1.808
1.808
1.808
1.794
1.828
1.813
1.818
1.818
1.804
1.818
1.818
1.808
1.838
1.843
1.843
1.828
1.843
1.813
1.818
1.813
1.818
1.828
1.852
1.838
1.867
1.823
1.838
1.818
1.818
1.813
1.838
1.838
1.852
1.862
1.852
1.828
1.828
1.833
1.828
1.823
1.843
1.848
1.838
1.833
1.828
1.799
1.852
1.823
1.838
1.843
1.838
1.828
1.823
1.848
1.848
1.828
1.852
1.848
1.848
1.823
1.818
1.828
1.823
1.848
1.818
1.838
1.891
1.828
1.838
1.862
1.852
1.838
1.833
1.867
1.852
1.872
1.857
1.848
1.823
1.828
1.838
1.848
1.838
1.867
1.833
1.838
1.872
1.867
1.828
1.823
1.857
1.838
1.838
1.843
1.843
1.843
1.828
1.833
1.833
1.833
1.838
1.833
1.848
1.862
1.833
1.838
1.867
1.838
1.848
1.813
1.843
1.818
1.843
1.872
1.852
1.843
1.852
1.848
1.828
1.818
1.833
1.828
1.833
1.852
1.833
1.823
1.848
1.833
1.808
1.818
1.823
1.813
1.823
1.862
1.818
1.838
1.813
1.808
1.808
1.808
1.808
1.813
1.828
1.813
1.789
1.818
1.862
1.813
1.789
1.808
1.804
1.794
1.799
1.833
1.813
1.823
1.813
1.804
1.789
1.789
1.784
1.799
1.789
1.804
1.794
1.789
1.823
1.779
1.804
1.769
1.779
1.774
1.799
1.784
1.794
1.794
1.784
1.789
1.769
1.779
1.764
1.774
1.779
1.779
1.755
1.760
1.784
1.764
1.755
1.760
1.774
1.755
1.769
1.764
1.769
1.774
1.774
1.750
1.755
1.745
1.760
1.755
1.764
1.755
1.750
1.750
1.774
1.755
1.735
1.730
1.740
1.745
1.745
1.740
1.764
1.755
1.730
1.730
1.730
1.720
1.720
1.740
1.730
1.740
1.735
1.730
1.750
1.730
1.706
1.711
1.716
1.725
1.725
1.725
1.725
1.720
1.720
1.740
1.711
1.716
1.720
1.725
1.720
1.716
1.696
1.706
1.735
1.740
1.696
1.701
1.745
1.701
1.711
1.711
1.725
1.716
1.696
1.701
1.696
1.696
1.696
1.686
1.696
1.720
1.701
1.696
1.716
1.701
1.706
1.672
1.691
1.701
1.691
1.672
1.725
1.691
1.706
1.676
1.672
1.701
1.676
1.672
1.720
1.681
1.681
1.686
1.686
1.696
1.667
1.657
1.686
1.667
1.672
1.672
1.667
1.662
1.691
1.672
1.676
1.667
1.657
1.662
1.691
1.657
1.637
1.657
1.676
1.676
1.642
1.642
1.657
1.662
1.647
1.667
1.657
1.711
1.642
1.647
1.642
1.637
1.628
1.652
1.647
1.647
1.642
1.637
1.652
1.662
1.623
1.628
1.632
1.642
1.637
1.642
1.647
1.637
1.628
1.618
1.618
1.623
1.628
1.632
1.642
1.628
1.618
1.613
1.623
1.613
1.608
1.608
1.618
1.613
1.618
1.642
1.623
1.613
1.618
1.618
1.613
1.628
1.613
1.618
1.608
1.603
1.613
1.584
1.613
1.608
1.618
1.608
1.603
1.593
1.618
1.628
1.623
1.613
1.598
1.618
1.608
1.608
1.598
1.598
1.623
1.593
1.579
1.603
1.608
1.603
1.584
1.579
1.603
1.593
1.598
1.637
1.608
1.623
1.593
1.598
1.613
1.618
1.608
1.657
1.618
1.637
1.618
1.628
1.662
1.652
1.637
1.642
1.652
1.667
1.672
1.686
1.681
1.696
1.676
1.686
1.691
1.691
1.691
1.716
1.711
1.711
1.735
1.716
1.750
1.725
1.716
1.720
1.769
1.735
1.760
1.784
1.755
1.769
1.799
1.755
1.755
1.769
1.760
1.760
1.774
1.760
1.755
1.760
1.784
1.764
1.764
1.784
1.764
1.755
1.769
1.808
1.789
1.784
1.764
1.779
1.764
1.760
1.760
1.764
1.794
1.774
1.769
1.764
1.789
1.764
1.750
1.760
1.769
1.764
1.794
1.799
1.804
1.808
1.764
1.769
1.760
1.784
1.779
1.789
1.784
1.779
1.784
1.789
1.784
1.779
1.769
1.779
1.794
1.804
1.794
1.808
1.808
1.799
1.808
1.813
1.789
1.794
1.789
1.789
1.808
1.808
1.804
1.789
1.823
1.828
1.794
1.794
1.799
1.789
1.799
1.794
1.833
1.828
1.838
1.794
1.794
1.818
1.794
1.789
1.808
1.808
1.828
1.794
1.828
1.828
1.808
1.784
1.808
1.794
1.838
1.799
1.808
1.794
1.784
1.799
1.804
1.794
1.813
1.794
1.808
1.813
1.794
1.794
1.823
1.838
1.789
1.799
1.808
1.804
1.818
1.818
1.808
1.818
1.813
1.843
1.813
1.808
1.804
1.813
1.813
1.818
1.818
1.823
1.843
1.828
1.804
1.808
1.828
1.823
1.823
1.833
1.843
1.848
1.818
1.813
1.804
1.833
1.808
1.828
1.818
1.823
1.808
1.808
1.838
1.848
1.818
1.818
1.813
1.813
1.813
1.813
1.843
1.838
1.848
1.804
1.804
1.804
1.799
1.804
1.808
1.799
1.794
1.794
1.833
1.833
1.794
1.813
1.804
1.804
1.794
1.789
1.828
1.813
1.804
1.808
1.799
1.799
1.784
1.784
1.794
1.784
1.799
1.779
1.789
1.808
1.789
1.764
1.784
1.774
1.779
1.779
1.784
1.789
1.804
1.764
1.760
1.774
1.764
1.764
1.769
1.789
1.764
1.760
1.779
1.828
1.755
1.755
1.764
1.760
1.745
1.760
1.799
1.789
1.750
1.769
1.745
1.755
1.740
1.764
1.750
1.760
1.755
1.750
1.760
1.774
1.745
1.735
1.740
1.730
1.740
1.745
1.755
1.769
1.760
1.755
1.745
1.725
1.730
1.725
1.745
1.740
1.750
1.730
1.764
1.740
1.720
1.716
1.764
1.745
1.735
1.740
1.735
1.750
1.750
1.716
1.720
1.720
1.716
1.725
1.730
1.720
1.720
1.711
1.730
1.720
1.706
1.701
1.706
1.706
1.711
1.711
1.711
1.730
1.720
1.735
1.696
1.696
1.711
1.716
1.706
1.691
1.716
1.711
1.701
1.696
1.681
1.681
1.696
1.701
1.725
1.691
1.691
1.701
1.676
1.691
1.681
1.686
1.681
1.701
1.686
1.696
1.696
1.696
1.696
1.711
1.686
1.686
1.676
1.681
1.696
1.672
1.672
1.681
1.676
1.686
1.686
1.667
1.662
1.657
1.686
1.672
1.676
1.667
1.676
1.691
1.652
1.642
1.686
1.662
1.667
1.667
1.676
1.676
1.657
1.647
1.647
1.642
1.652
1.657
1.657
1.652
1.647
1.642
1.662
1.667
1.642
1.652
1.642
1.647
1.662
1.657
1.657
1.642
1.632
1.657
1.632
1.632
1.628
1.637
1.642
1.637
1.618
1.652
1.642
1.642
1.618
1.613
1.623
1.632
1.618
1.642
1.628
1.623
1.618
1.628
1.618
1.662
1.632
1.628
1.618
1.628
1.608
1.598
1.608
1.642
1.618
1.613
1.603
1.618
1.608
1.628
1.618
1.623
1.613
1.603
1.623
1.593
1.593
1.618
1.608
1.603
1.588
1.584
1.608
1.598
1.588
1.613
1.588
1.588
1.598
1.603
1.613
1.598
1.584
1.588
1.579
1.579
1.579
1.579
1.588
1.584
1.593
1.579
1.588
1.579
1.574
1.559
1.569
1.574
1.584
1.584
1.623
1.593
1.574
1.564
1.569
1.569
1.574
1.579
1.588
1.584
1.593
1.579
1.588
1.618
1.579
1.584
1.598
1.603
1.593
1.618
1.618
1.632
1.642
1.647
1.647
1.642
1.647
1.652
1.652
1.662
1.691
1.657
1.672
1.711
1.676
1.681
1.716
1.696
1.701
1.701
1.716
1.720
1.750
1.720
1.716
1.720
1.720
1.740
1.735
1.740
1.745
1.760
1.750
1.760
1.740
1.730
1.745
1.755
1.760
1.750
1.764
1.794
1.769
1.745
1.750
1.750
1.750
1.760
1.769
1.764
1.760
1.789
1.760
1.760
1.750
1.750
1.760
1.755
1.764
1.755
1.764
1.784
1.764
1.779
1.764
1.755
1.760
1.764
1.764
1.769
1.764
1.760
1.784
1.784
1.760
1.755
1.779
1.779
1.769
1.794
1.799
1.799
1.784
1.774
1.784
1.774
1.799
1.784
1.784
1.799
1.794
1.808
1.794
1.852
1.799
1.799
1.794
1.818
1.838
1.794
1.813
1.808
1.794
1.838
1.794
1.808
1.818
1.804
1.813
1.818
1.808
1.813
1.813
1.838
1.794
1.804
1.804
1.808
1.804
1.799
1.828
1.823
1.818
1.818
1.818
1.799
1.799
1.808
1.808
1.813
1.813
1.799
1.808
1.828
1.799
1.784
1.804
1.818
1.823
1.808
1.833
1.833
1.823
1.799
1.804
1.799
1.818
1.808
1.818
1.838
1.808
1.808
1.823
1.823
1.808
1.808
1.808
1.828
1.813
1.843
1.823
1.852
1.808
1.808
1.838
1.804
1.813
1.813
1.813
1.833
1.808
1.818
1.818
1.818
1.838
1.799
1.804
1.818
1.813
1.813
1.818
1.813
1.828
1.828
1.808
1.808
1.804
1.813
1.813
1.828
1.818
1.799
1.799
1.833
1.789
1.799
1.808
1.823
1.857
1.804
1.857
1.813
1.789
1.808
1.818
1.808
1.794
1.794
1.794
1.794
1.794
1.799
1.794
1.813
1.813
1.799
1.779
1.774
1.779
1.794
1.794
1.804
1.808
1.779
1.774
1.764
1.769
1.764
1.774
1.779
1.784
1.755
1.779
1.794
1.760
1.750
1.774
1.774
1.769
1.779
1.794
1.774
1.769
1.804
1.755
1.750
1.755
1.760
1.755
1.769
1.735
1.745
1.755
1.755
1.735
1.740
1.750
1.750
1.725
1.760
1.760
1.769
1.740
1.750
1.730
1.730
1.735
1.730
1.730
1.745
1.735
1.730
1.740
1.769
1.716
1.720
1.711
1.735
1.720
1.735
1.755
1.755
1.725
1.711
1.706
1.706
1.706
1.730
1.764
1.725
1.716
1.720
1.691
1.706
1.701
1.696
1.701
1.716
1.720
1.716
1.716
1.740
1.711
1.706
1.711
1.716
1.716
1.711
1.711
1.701
1.701
1.672
1.681
1.701
1.701
1.696
1.696
1.696
1.696
1.681
1.691
1.696
1.701
1.696
1.691
1.696
1.672
1.676
1.681
1.686
1.691
1.681
1.681
1.706
1.676
1.667
1.686
1.676
1.667
1.696
1.686
1.676
1.686
1.667
1.676
1.667
1.657
1.676
1.667
1.672
1.672
1.672
1.667
1.681
1.647
1.667
1.647
1.662
1.696
1.662
1.676
1.667
1.642
1.672
1.657
1.642
1.637
1.647
1.691
1.652
1.642
1.657
1.623
1.637
1.628
1.642
1.642
1.637
1.632
1.662
1.652
1.642
1.657
1.632
1.637
1.637
1.623
1.647
1.637
1.628
1.657
1.598
1.613
1.637
1.613
1.618
1.613
1.623
1.623
1.608
1.632
1.628
1.608
1.618
1.603
1.603
1.618
1.608
1.603
1.598
1.598
1.598
1.593
1.613
1.608
1.584
1.574
1.588
1.579
1.603
1.618
1.613
1.603
1.584
1.579
1.588
1.574
1.588
1.593
1.593
1.588
1.593
1.579
1.613
1.569
1.579
1.564
1.593
1.584
1.579
1.593
1.598
1.584
1.584
1.584
1.603
1.564
1.569
1.603
1.569
1.574
1.559
1.559
1.574
1.554
1.559
1.564
1.564
1.564
1.593
1.559
1.584
1.569
1.554
1.574
1.544
1.549
1.549
1.559
1.574
1.549
1.544
1.574
1.564
1.544
1.535
1.540
1.544
1.544
1.564
1.584
1.574
1.564
1.554
1.559
1.559
1.559
1.564
1.574
1.579
1.584
1.579
1.574
1.603
1.593
1.608
1.628
1.628
1.628
1.628
1.618
1.632
1.637
1.642
1.667
1.642
1.642
1.662
1.652
1.701
1.652
1.672
1.672
1.691
1.672
1.672
1.681
1.720
1.686
1.706
1.716
1.730
1.711
1.706
1.691
1.706
1.701
1.711
1.711
1.720
1.735
1.716
1.706
1.760
1.706
1.701
1.701
1.716
1.725
1.725
1.725
1.740
1.725
1.725
1.711
1.711
1.730
1.769
1.725
1.716
1.716
1.711
1.706
1.720
1.730
1.720
1.716
1.725
1.735
1.716
1.725
1.730
1.730
1.735
1.745
1.745
1.755
1.725
1.730
1.730
1.740
1.774
1.740
1.764
1.750
1.730
1.725
1.745
1.760
1.745
1.755
1.774
1.764
1.755
1.740
1.745
1.745
1.750
1.774
1.764
1.764
1.745
1.750
1.799
1.760
1.760
1.750
1.779
1.789
1.764
1.789
1.784
1.808
1.764
1.764
1.769
1.760
1.774
1.769
1.779
1.774
1.760
1.774
1.789
1.760
1.764
1.745
1.769
1.764
1.784
1.764
1.760
1.755
1.764
1.779
1.774
1.779
1.764
1.769
1.804
1.769
1.750
1.750
1.774
1.774
1.769
1.779
1.764
1.764
1.813
1.784
1.784
1.789
1.784
1.774
1.760
1.794
1.764
1.774
1.774
1.769
1.764
1.769
1.784
1.774
1.769
1.774
1.769
1.755
1.789
1.799
1.799
1.774
1.769
1.764
1.764
1.769
1.764
1.774
1.774
1.779
1.760
1.774
1.784
1.789
1.760
1.750
1.764
1.755
1.794
1.774
1.784
1.760
1.764
1.769
1.764
1.755
1.764
1.760
1.784
1.764
1.764
1.760
1.789
1.755
1.755
1.740
1.799
1.745
1.760
1.745
1.760
1.764
1.764
1.779
1.745
1.740
1.774
1.740
1.750
1.750
1.740
1.735
1.745
1.730
1.745
1.725
1.735
1.774
1.740
1.760
1.799
1.764
1.725
1.735
1.716
1.720
1.716
1.750
1.725
1.725
1.716
1.750
1.740
1.730
1.706
1.735
1.711
1.720
1.725
1.730
1.730
1.716
1.706
1.701
1.696
1.701
1.735
1.711
1.711
1.725
1.696
1.672
1.706
1.720
1.696
1.681
1.725
1.701
1.701
1.701
1.701
1.691
1.701
1.706
1.701
1.691
1.720
1.681
1.686
1.720
1.667
1.662
1.701
1.706
1.691
1.662
1.696
1.672
1.701
1.691
1.711
1.681
1.686
1.676
1.662
1.662
1.681
1.667
1.676
1.657
1.657
1.657
1.667
1.662
1.652
1.652
1.681
1.652
1.672
1.672
1.681
1.672
1.647
1.652
1.657
1.657
1.652
1.652
1.657
1.662
1.657
1.652
1.672
1.647
1.637
1.637
1.642
1.637
1.657
1.652
1.672
1.662
1.672
1.632
1.647
1.632
1.637
1.642
1.662
1.642
1.652
1.618
1.662
1.618
1.628
1.637
1.652
1.642
1.628
1.637
1.637
1.618
1.618
1.628
1.632
1.628
1.623
1.623
1.628
1.618
1.598
1.603
1.642
1.623
1.618
1.613
1.623
1.613
1.613
1.613
1.652
1.618
1.618
1.598
1.608
1.618
1.598
1.603
1.603
1.588
1.623
1.593
1.608
1.603
1.579
1.584
1.584
1.588
1.618
1.603
1.603
1.613
1.588
1.608
1.579
1.584
1.588
1.588
1.593
1.593
1.569
1.579
1.608
1.574
1.564
1.569
1.618
1.579
1.579
1.579
1.574
1.579
1.579
1.588
1.569
1.569
1.574
1.564
1.564
1.574
1.564
1.564
1.593
1.564
1.564
1.559
1.559
1.569
1.564
1.569
1.598
1.579
1.569
1.574
1.549
1.549
1.549
1.554
1.598
1.554
1.554
1.549
1.569
1.579
1.540
1.535
1.564
1.540
1.554
1.598
1.554
1.584
1.540
1.535
1.564
1.530
1.540
1.544
1.549
1.535
1.554
1.525
1.564
1.525
1.530
1.520
1.554
1.540
1.520
1.530
1.540
1.559
1.544
1.544
1.525
1.525
1.525
1.535
1.540
1.554
1.535
1.544
1.603
1.540
1.535
1.544
1.559
1.579
1.559
1.584
1.588
1.598
1.588
1.574
1.574
1.584
1.588
1.603
1.608
1.608
1.632
1.628
1.637
1.618
1.613
1.628
1.642
1.628
1.662
1.667
1.676
1.647
1.657
1.676
1.662
1.662
1.701
1.676
1.696
1.667
1.672
1.686
1.701
1.672
1.696
1.667
1.701
1.691
1.691
1.686
1.701
1.691
1.706
1.696
1.691
1.681
1.696
1.691
1.720
1.681
1.696
1.691
1.706
1.681
1.686
1.696
1.691
1.681
1.711
1.740
1.720
1.686
1.701
1.681
1.686
1.691
1.696
1.701
1.696
1.711
1.686
1.691
1.720
1.691
1.691
1.691
1.696
1.686
1.730
1.716
1.725
1.730
1.706
1.706
1.701
1.706
1.706
1.706
1.745
1.720
1.711
1.720
1.740
1.720
1.711
1.706
1.716
1.711
1.725
1.730
1.725
1.730
1.735
1.730
1.730
1.725
1.720
1.720
1.730
1.730
1.735
1.720
1.750
1.720
1.716
1.711
1.735
1.720
1.764
1.740
1.755
1.740
1.730
1.716
1.725
1.725
1.730
1.730
1.735
1.725
1.750
1.720
1.769
1.725
1.725
1.740
1.735
1.725
1.730
1.750
1.764
1.760
1.735
1.730
1.725
1.725
1.725
1.750
1.750
1.750
1.750
1.750
1.774
1.730
1.755
1.725
1.740
1.784
1.760
1.779
1.760
1.740
1.735
1.755
1.740
1.755
1.760
1.779
1.745
1.755
1.720
1.735
1.750
1.745
1.774
1.750
1.760
1.745
1.745
1.745
1.760
1.750
1.755
1.760
1.760
1.735
1.735
1.735
1.750
1.735
1.725
1.750
1.769
1.735
1.735
1.720
1.735
1.725
1.740
1.745
1.745
1.745
1.750
1.725
1.730
1.720
1.730
1.730
1.760
1.735
1.720
1.716
1.750
1.720
1.725
1.706
1.740
1.716
1.725
1.720
1.730
1.706
1.711
1.711
1.716
1.711
1.745
1.711
1.716
1.711
1.701
1.701
1.720
1.711
1.696
1.691
1.701
1.711
1.701
1.701
1.716
1.725
1.711
1.711
1.691
1.691
1.691
1.706
1.730
1.706
1.696
1.701
1.701
1.686
1.681
1.706
1.691
1.725
1.716
1.720
1.720
1.716
1.681
1.676
1.681
1.686
1.686
1.686
1.681
1.696
1.681
1.681
1.716
1.686
1.676
1.662
1.681
1.696
1.686
1.681
1.735
1.672
1.676
1.672
1.667
1.657
1.676
1.676
1.676
1.667
1.672
1.657
1.676
1.676
1.652
1.642
1.667
1.647
1.662
1.667
1.686
1.657
1.657
1.672
1.652
1.647
1.657
1.662
1.657
1.667
1.662
1.652
1.676
1.686
1.637
1.637
1.652
1.647
1.647
1.657
1.662
1.647
1.657
1.657
1.652
1.647
1.642
1.647
1.647
1.647
1.628
1.632
1.686
1.647
1.628
1.628
1.637
1.628
1.632
1.667
1.657
1.667
1.652
1.628
1.623
1.647
1.618
1.632
1.632
1.632
1.613
1.618
1.676
1.613
1.613
1.598
1.618
1.608
1.632
1.637
1.618
1.652
1.608
1.603
1.608
1.603
1.613
1.608
1.628
1.613
1.608
1.593
1.652
1.593
1.603
1.593
1.608
1.608
1.608
1.613
1.608
1.593
1.608
1.603
1.598
1.608
1.603
1.613
1.598
1.588
1.588
1.574
1.603
1.579
1.598
1.593
1.593
1.588
1.598
1.598
1.593
1.608
1.588
1.588
1.588
1.569
1.588
1.584
1.584
1.593
1.569
1.574
1.603
1.579
1.569
1.569
1.588
1.569
1.574
1.584
1.579
1.603
1.569
1.564
1.584
1.564
1.564
1.564
1.564
1.569
1.559
1.559
1.588
1.554
1.544
1.549
1.554
1.544
1.559
1.569
1.579
1.569
1.549
1.549
1.544
1.540
1.544
1.549
1.554
1.574
1.544
1.540
1.593
1.535
1.544
1.530
1.554
1.544
1.559
1.554
1.593
1.554
1.569
1.559
1.554
1.569
1.564
1.564
1.608
1.564
1.569
1.564
1.603
1.574
1.579
1.588
1.598
1.588
1.608
1.628
1.642
1.652
1.613
1.623
1.628
1.632
1.637
1.647
1.652
1.662
1.652
1.672
1.696
1.681
1.667
1.667
1.676
1.681
1.701
1.711
1.720
1.735
1.696
1.701
1.706
1.706
1.701
1.711
1.716
1.716
1.701
1.720
1.760
1.716
1.706
1.716
1.725
1.711
1.725
1.730
1.720
1.716
1.730
1.735
1.720
1.725
1.730
1.725
1.725
1.711
1.735
1.716
1.730
1.720
1.725
1.716
1.745
1.720
1.745
1.740
1.755
1.730
1.730
1.725
1.735
1.720
1.730
1.760
1.745
1.750
1.750
1.750
1.799
1.750
1.760
1.730
1.755
1.750
1.764
1.769
1.784
1.799
1.750
1.750
1.750
1.755
1.784
1.764
1.769
1.769
1.760
1.789
1.779
1.779
1.760
1.764
1.784
1.769
1.769
1.789
1.794
1.794
1.789
1.808
1.789
1.779
1.774
1.784
1.813
1.794
1.760
1.784
1.808
1.784
1.769
1.779
1.808
1.794
1.799
1.813
1.813
1.799
1.779
1.769
1.769
1.769
1.769
1.808
1.799
1.789
1.779
1.769
1.828
1.789
1.769
1.764
1.789
1.784
1.789
1.804
1.818
1.784
1.779
1.779
1.784
1.779
1.784
1.779
1.799
1.794
1.804
1.779
1.823
1.784
1.784
1.774
1.789
1.779
1.784
1.799
1.789
1.784
1.784
1.779
1.779
1.779
1.779
1.804
1.794
1.794
1.774
1.779
1.823
1.784
1.769
1.769
1.784
1.784
1.789
1.808
1.828
1.813
1.794
1.794
1.804
1.794
1.808
1.813
1.779
1.784
1.769
1.804
1.789
1.789
1.779
1.794
1.804
1.769
1.764
1.794
1.799
1.789
1.779
1.794
1.769
1.760
1.774
1.764
1.769
1.774
1.760
1.789
1.789
1.750
1.755
1.740
1.760
1.755
1.769
1.779
1.789
1.750
1.745
1.740
1.769
1.740
1.750
1.769
1.789
1.750
1.750
1.730
1.750
1.725
1.740
1.740
1.755
1.740
1.755
1.745
1.735
1.735
1.755
1.725
1.730
1.745
1.755
1.730
1.730
1.735
1.706
1.701
1.735
1.745
1.730
1.716
1.725
1.755
1.720
1.725
1.711
1.720
1.725
1.725
1.720
1.706
1.706
1.716
1.711
1.716
1.711
1.711
1.735
1.711
1.725
1.716
1.711
1.711
1.711
1.735
1.750
1.735
1.691
1.696
1.686
1.696
1.706
1.720
1.696
1.701
1.691
1.691
1.711
1.681
1.676
1.676
1.686
1.696
1.691
1.711
1.691
1.681
1.681
1.681
1.676
1.667
1.681
1.672
1.672
1.681
1.676
1.667
1.691
1.681
1.657
1.652
1.686
1.662
1.667
1.676
1.686
1.672
1.701
1.672
1.672
1.647
1.652
1.662
1.672
1.657
1.667
1.647
1.681
1.657
1.637
1.642
1.657
1.647
1.652
1.667
1.672
1.662
1.637
1.642
1.637
1.637
1.637
1.637
1.642
1.667
1.632
1.642
1.691
1.647
1.623
1.623
1.632
1.672
1.628
1.642
1.637
1.637
1.647
1.628
1.618
1.652
1.613
1.632
1.623
1.623
1.618
1.613
1.647
1.628
1.598
1.598
1.642
1.608
1.618
1.637
1.613
1.618
1.618
1.618
1.628
1.598
1.603
1.608
1.608
1.603
1.593
1.588
1.637
1.593
1.593
1.593
1.613
1.598
1.598
1.618
1.618
1.593
1.603
1.588
1.593
1.588
1.588
1.588
1.598
1.593
1.584
1.593
1.618
1.613
1.569
1.564
1.574
1.574
1.584
1.603
1.584
1.632
1.569
1.564
1.559
1.564
1.569
1.569
1.574
1.574
1.564
1.564
1.574
1.554
1.549
1.574
1.559
1.564
1.559
1.564
1.564
1.579
1.564
1.574
1.549
1.554
1.549
1.559
1.549
1.559
1.535
1.559
1.588
1.564
1.535
1.559
1.544
1.544
1.540
1.564
1.574
1.554
1.540
1.549
1.535
1.535
1.530
1.540
1.549
1.544
1.549
1.554
1.569
1.540
1.549
1.530
1.549
1.554
1.579
1.579
1.618
1.564
1.559
1.559
1.569
1.574
1.584
1.588
1.603
1.603
1.598
1.618
1.628
1.613
1.642
1.608
1.628
1.652
1.632
1.647
1.642
1.652
1.657
1.667
1.652
1.667
1.652
1.672
1.672
1.676
1.691
1.686
1.711
1.720
1.667
1.676
1.691
1.686
1.701
1.716
1.716
1.730
1.701
1.696
1.716
1.691
1.696
1.716
1.711
1.696
1.691
1.730
1.706
1.706
1.691
1.716
1.711
1.701
1.720
1.750
1.706
1.706
1.691
1.696
1.701
1.706
1.701
1.706
1.711
1.740
1.725
1.701
1.735
1.735
1.701
1.696
1.711
1.706
1.720
1.725
1.720
1.735
1.730
1.730
1.735
1.716
1.745
1.716
1.735
1.764
1.745
1.725
1.755
1.764
1.730
1.720
1.760
1.745
1.760
1.774
1.760
1.769
1.760
1.760
1.745
1.745
1.769
1.755
1.760
1.764
1.730
1.745
1.774
1.784
1.745
1.760
1.764
1.755
1.750
1.774
1.755
1.784
1.760
1.764
1.750
1.755
1.745
1.760
1.755
1.769
1.769
1.764
1.789
1.769
1.740
1.745
1.755
1.755
1.755
1.769
1.760
1.784
1.769
1.769
1.750
1.764
1.745
1.750
1.764
1.764
1.760
1.755
1.769
1.764
1.740
1.750
1.764
1.760
1.784
1.769
1.764
1.784
1.764
1.784
1.760
1.760
1.789
1.755
1.769
1.764
1.764
1.769
1.794
1.784
1.760
1.750
1.769
1.760
1.769
1.779
1.813
1.774
1.789
1.755
1.755
1.755
1.755
1.774
1.764
1.760
1.764
1.760
1.764
1.750
1.735
1.755
1.760
1.774
1.794
1.764
1.769
1.755
1.750
1.745
1.740
1.769
1.755
1.779
1.750
1.755
1.740
1.720
1.745
1.764
1.740
1.769
1.745
1.740
1.774
1.735
1.735
1.750
1.745
1.760
1.740
1.730
1.720
1.740
1.725
1.725
1.720
1.730
1.745
1.735
1.711
1.701
1.720
1.720
1.745
1.740
1.755
1.750
1.706
1.706
1.706
1.706
1.706
1.706
1.720
1.706
1.711
1.691
1.735
1.725
1.701
1.691
1.706
1.696
1.706
1.701
1.725
1.686
1.686
1.686
1.696
1.686
1.691
1.730
1.691
1.696
1.701
1.681
1.701
1.691
1.691
1.672
1.681
1.681
1.676
1.686
1.686
1.725
1.696
1.701
1.672
1.667
1.672
1.701
1.676
1.662
1.667
1.676
1.676
1.667
1.662
1.657
1.672
1.667
1.686
1.676
1.696
1.686
1.652
1.657
1.652
1.657
1.652
1.657
1.667
1.672
1.657
1.662
1.676
1.681
1.696
1.652
1.652
1.647
1.642
1.652
1.657
1.642
1.667
1.676
1.637
1.637
1.637
1.632
1.642
1.672
1.642
1.632
1.691
1.667
1.642
1.618
1.628
1.637
1.637
1.637
1.652
1.637
1.652
1.642
1.632
1.618
1.628
1.618
1.637
1.632
1.628
1.608
1.632
1.647
1.618
1.608
1.623
1.623
1.623
1.618
1.632
1.642
1.618
1.628
1.608
1.613
1.618
1.608
1.608
1.608
1.608
1.628
1.628
1.632
1.593
1.598
1.593
1.598
1.593
1.608
1.608
1.618
1.647
1.598
1.584
1.588
1.584
1.598
1.598
1.603
1.608
1.588
1.608
1.628
1.574
1.574
1.584
1.593
1.588
1.593
1.593
1.588
1.579
1.588
1.569
1.569
1.569
1.579
1.579
1.574
1.554
1.559
1.598
1.574
1.559
1.564
1.584
1.564
1.564
1.579
1.603
1.569
1.564
1.569
1.564
1.554
1.588
1.559
1.579
1.559
1.564
1.554
1.584
1.559
1.549
1.540
1.559
1.579
1.549
1.554
1.584
1.564
1.549
1.544
1.540
1.535
1.540
1.549
1.574
1.559
1.535
1.540
1.559
1.564
1.530
1.530
1.535
1.544
1.540
1.535
1.535
1.544
1.559
1.554
1.530
1.564
1.525
1.535
1.530
1.530
1.549
1.525
1.530
1.549
1.515
1.525
1.535
1.520
1.525
1.515
1.530
1.574
1.544
1.520
1.549
1.515
1.520
1.520
1.530
1.549
1.525
1.540
1.559
1.540
1.554
1.520
1.540
1.569
1.549
1.564
1.584
1.564
1.569
1.554
1.564
1.564
1.574
1.584
1.628
1.598
1.603
1.588
1.618
1.603
1.603
1.608
1.623
1.618
1.632
1.632
1.637
1.642
1.657
1.662
1.642
1.676
1.642
1.652
1.667
1.652
1.667
1.657
1.686
1.701
1.652
1.667
1.676
1.681
1.691
1.706
1.696
1.701
1.681
1.672
1.667
1.691
1.667
1.676
1.681
1.706
1.676
1.686
1.686
1.696
1.662
1.672
1.681
1.701
1.676
1.711
1.701
1.696
1.676
1.672
1.676
1.681
1.676
1.706
1.686
1.681
1.681
1.691
1.701
1.706
1.676
1.672
1.686
1.696
1.696
1.706
1.696
1.706
1.706
1.711
1.701
1.686
1.696
1.716
1.706
1.711
1.711
1.701
1.740
1.730
1.730
1.691
1.720
1.716
1.720
1.711
1.755
1.755
1.716
1.706
1.711
1.711
1.716
1.725
1.725
1.725
1.706
1.750
1.730
1.725
1.706
1.716
1.716
1.720
1.720
1.730
1.735
1.740
1.711
1.725
1.745
1.716
1.716
1.725
1.725
1.725
1.706
1.745
1.730
1.735
1.706
1.716
1.725
1.735
1.720
1.740
1.725
1.784
1.735
1.745
1.720
1.720
1.716
1.735
1.735
1.740
1.720
1.755
1.735
1.755
1.716
1.716
1.760
1.730
1.730
1.735
1.735
1.769
1.755
1.764
1.730
1.735
1.764
1.740
1.755
1.735
1.730
1.730
1.750
1.779
1.730
1.725
1.764
1.730
1.769
1.740
1.760
1.755
1.764
1.764
1.730
1.725
1.725
1.740
1.735
1.735
1.745
1.730
1.725
1.725
1.711
1.735
1.720
1.735
1.769
1.735
1.740
1.725
1.720
1.725
1.711
1.730
1.725
1.760
1.725
1.720
1.711
1.696
1.711
1.735
1.720
1.735
1.716
1.755
1.716
1.711
1.716
1.725
1.716
1.725
1.735
1.711
1.696
1.740
1.706
1.716
1.696
1.696
1.720
1.711
1.706
1.681
1.691
1.711
1.716
1.706
1.711
1.720
1.706
1.686
1.691
1.676
1.681
1.691
1.706
1.686
1.691
1.681
1.725
1.696
1.672
1.672
1.691
1.691
1.686
1.667
1.696
1.681
1.676
1.676
1.676
1.672
1.686
1.681
1.686
1.667
1.667
1.711
1.662
1.681
1.672
1.681
1.667
1.667
1.672
1.681
1.672
1.691
1.720
1.667
1.662
1.667
1.657
1.657
1.657
1.672
1.667
1.676
1.672
1.672
1.662
1.657
1.642
1.662
1.662
1.676
1.662
1.672
1.676
1.652
1.647
1.652
1.647
1.657
1.657
1.667
1.657
1.652
1.652
1.672
1.647
1.652
1.637
1.647
1.662
1.632
1.642
1.652
1.632
1.637
1.632
1.657
1.632
1.623
1.672
1.637
1.623
1.632
1.637
1.647
1.628
1.613
1.623
1.623
1.632
1.632
1.657
1.662
1.647
1.637
1.642
1.613
1.613
1.628
1.637
1.632
1.647
1.618
1.623
1.618
1.608
1.598
1.623
1.637
1.632
1.628
1.618
1.613
1.628
1.603
1.613
1.628
1.608
1.603
1.608
1.603
1.598
1.593
1.588
1.647
1.608
1.603
1.588
1.608
1.613
1.598
1.593
1.628
1.588
1.598
1.588
1.588
1.584
1.598
1.593
1.598
1.579
1.588
1.588
1.598
1.569
1.579
1.574
1.598
1.584
1.593
1.579
1.579
1.593
1.579
1.588
1.569
1.569
1.584
1.574
1.569
1.569
1.564
1.569
1.579
1.559
1.569
1.569
1.564
1.569
1.569
1.574
1.588
1.588
1.564
1.564
1.554
1.559
1.554
1.564
1.559
1.574
1.559
1.569
1.588
1.554
1.540
1.554
1.569
1.559
1.559
1.569
1.598
1.574
1.559
1.540
1.544
1.535
1.544
1.549
1.559
1.549
1.544
1.535
1.559
1.525
1.530
1.530
1.554
1.544
1.559
1.540
1.564
1.540
1.554
1.535
1.540
1.525
1.564
1.530
1.535
1.510
1.525
1.525
1.540
1.520
1.525
1.525
1.525
1.544
1.544
1.535
1.559
1.520
1.530
1.520
1.520
1.544
1.520
1.525
1.564
1.530
1.540
1.554
1.544
1.525
1.525
1.535
1.559
1.549
1.559
1.579
1.588
1.559
1.554
1.564
1.588
1.588
1.584
1.608
1.588
1.598
1.598
1.598
1.608
1.608
1.613
1.618
1.618
1.632
1.623
1.632
1.672
1.647
1.642
1.672
1.647
1.652
1.657
1.667
1.672
1.701
1.672
1.662
1.706
1.667
1.667
1.672
1.676
1.676
1.676
1.706
1.696
1.701
1.701
1.701
1.686
1.681
1.706
1.691
1.706
1.701
1.716
1.681
1.711
1.691
1.686
1.681
1.706
1.696
1.701
1.701
1.716
1.706
1.716
1.691
1.706
1.701
1.706
1.706
1.735
1.711
1.701
1.716
1.740
1.711
1.696
1.701
1.711
1.711
1.740
1.750
1.745
1.740
1.720
1.720
1.716
1.720
1.720
1.764
1.740
1.750
1.735
1.725
1.745
1.725
1.725
1.730
1.750
1.760
1.774
1.760
1.774
1.755
1.784
1.750
1.760
1.764
1.774
1.769
1.755
1.769
1.735
1.740
1.769
1.760
1.760
1.760
1.764
1.760
1.764
1.755
1.764
1.769
1.774
1.779
1.755
1.750
1.755
1.755
1.784
1.760
1.764
1.764
1.779
1.784
1.750
1.745
1.764
1.760
1.789
1.779
1.779
1.750
1.760
1.750
1.760
1.779
1.760
1.760
1.789
1.764
1.760
1.750
1.779
1.745
1.750
1.750
1.760
1.755
1.760
1.764
1.769
1.750
1.755
1.769
1.760
1.764
1.774
1.764
1.779
1.764
1.764
1.794
1.774
1.769
1.755
1.760
1.784
1.774
1.760
1.779
1.774
1.799
1.784
1.779
1.760
1.760
1.774
1.774
1.760
1.774
1.760
1.779
1.779
1.750
1.745
1.760
1.760
1.755
1.764
1.769
1.804
1.784
1.750
1.750
1.745
1.745
1.784
1.755
1.760
1.740
1.750
1.750
1.769
1.740
1.745
1.735
1.750
1.769
1.755
1.764
1.779
1.745
1.740
1.735
1.745
1.730
1.740
1.760
1.755
1.730
1.745
1.740
1.764
1.720
1.730
1.725
1.735
1.730
1.755
1.740
1.750
1.740
1.760
1.725
1.716
1.716
1.725
1.725
1.725
1.706
1.711
1.716
1.720
1.701
1.701
1.720
1.720
1.716
1.725
1.779
1.720
1.706
1.716
1.711
1.706
1.706
1.706
1.735
1.706
1.711
1.730
1.711
1.725
1.730
1.691
1.691
1.701
1.701
1.691
1.691
1.711
1.725
1.696
1.686
1.711
1.681
1.681
1.720
1.696
1.691
1.681
1.696
1.711
1.691
1.672
1.662
1.686
1.691
1.681
1.696
1.716
1.681
1.686
1.711
1.672
1.667
1.681
1.676
1.686
1.667
1.706
1.662
1.686
1.691
1.672
1.662
1.681
1.662
1.667
1.672
1.686
1.662
1.657
1.681
1.657
1.657
1.652
1.657
1.662
1.662
1.672
1.657
1.691
1.701
1.657
1.642
1.647
1.657
1.652
1.716
1.686
1.681
1.642
1.642
1.642
1.637
1.647
1.652
1.642
1.647
1.632
1.647
1.691
1.628
1.623
1.657
1.642
1.632
1.652
1.632
1.642
1.623
1.632
1.623
1.628
1.632
1.642
1.623
1.637
1.623
1.608
1.593
1.628
1.628
1.628
1.603
1.623
1.608
1.613
1.618
1.628
1.632
1.628
1.618
1.618
1.598
1.603
1.603
1.618
1.608
1.603
1.598
1.632
1.598
1.593
1.618
1.593
1.588
1.603
1.608
1.613
1.613
1.584
1.584
1.603
1.584
1.588
1.608
1.593
1.588
1.579
1.579
1.588
1.569
1.574
1.569
1.579
1.574
1.569
1.584
1.588
1.564
1.569
1.569
1.569
1.564
1.564
1.579
1.584
1.569
1.564
1.579
1.579
1.559
1.549
1.554
1.569
1.559
1.564
1.598
1.569
1.584
1.579
1.574
1.549
1.549
1.544
1.559
1.564
1.554
1.574
1.540
1.584
1.540
1.540
1.544
1.549
1.540
1.584
1.549
1.564
1.559
1.544
1.544
1.540
1.530
1.544
1.535
1.544
1.530
1.535
1.535
1.564
1.525
1.530
1.515
1.530
1.525
1.535
1.535
1.588
1.530
1.535
1.549
1.525
1.520
1.530
1.525
1.535
1.520
1.520
1.520
1.549
1.510
1.505
1.505
1.510
1.520
1.515
1.515
1.535
1.510
1.515
1.525
1.525
1.525
1.515
1.515
1.535
1.515
1.515
1.505
1.530
1.540
1.520
1.515
1.535
1.540
1.525
1.535
1.559
1.584
1.549
1.544
1.544
1.544
1.549
1.564
1.574
1.574
1.569
1.574
1.613
1.588
1.574
1.579
1.608
1.603
1.603
1.637
1.618
1.632
1.628
1.618
1.652
1.628
1.637
1.662
1.667
1.657
1.647
1.647
1.686
1.647
1.662
1.642
1.681
1.672
1.667
1.667
1.676
1.657
1.672
1.686
1.686
1.681
1.696
1.681
1.672
1.667
1.662
1.647
1.696
1.681
1.676
1.686
1.667
1.662
1.672
1.681
1.696
1.681
1.691
1.691
1.672
1.672
1.672
1.681
1.681
1.691
1.672
1.691
1.706
1.720
1.667
1.696
1.696
1.701
1.691
1.706
1.720
1.720
1.686
1.701
1.691
1.696
1.711
1.711
1.720
1.745
1.720
1.735
1.716
1.711
1.740
1.706
1.720
1.735
1.730
1.745
1.740
1.720
1.725
1.720
1.730
1.720
1.725
1.730
1.745
1.735
1.735
1.760
1.764
1.725
1.720
1.720
1.740
1.720
1.745
1.745
1.760
1.784
1.755
1.745
1.730
1.720
1.750
1.735
1.750
1.750
1.735
1.745
1.760
1.730
1.730
1.720
1.740
1.725
1.735
1.745
1.750
1.735
1.735
1.730
1.735
1.730
1.750
1.740
1.745
1.735
1.740
1.760
1.750
1.740
1.725
1.725
1.735
1.735
1.760
1.750
1.784
1.755
1.740
1.740
1.730
1.769
1.735
1.774
1.745
1.750
1.740
1.745
1.750
1.745
1.725
1.740
1.764
1.740
1.799
1.755
1.774
1.730
1.755
1.730
1.735
1.774
1.755
1.760
1.745
1.740
1.716
1.706
1.779
1.745
1.750
1.755
1.755
1.740
1.740
1.750
1.730
1.740
1.760
1.750
1.740
1.720
1.745
1.735
1.735
1.740
1.725
1.725
1.769
1.725
1.720
1.706
1.720
1.750
1.740
1.740
1.755
1.725
1.720
1.711
1.716
1.711
1.711
1.716
1.730
1.740
1.716
1.706
1.730
1.720
1.696
1.696
1.716
1.706
1.706
1.720
1.706
1.706
1.696
1.701
1.701
1.701
1.706
1.711
1.711
1.711
1.686
1.696
1.730
1.701
1.706
1.696
1.696
1.691
1.686
1.696
1.696
1.691
1.701
1.706
1.681
1.691
1.676
1.681
1.701
1.691
1.686
1.681
1.730
1.667
1.667
1.686
1.691
1.672
1.691
1.691
1.686
1.701
1.676
1.662
1.676
1.667
1.681
1.676
1.691
1.676
1.657
1.686
1.696
1.657
1.672
1.662
1.662
1.662
1.667
1.676
1.676
1.672
1.691
1.652
1.652
1.652
1.652
1.652
1.662
1.657
1.647
1.642
1.711
1.642
1.637
1.632
1.642
1.637
1.652
1.662
1.652
1.686
1.652
1.652
1.647
1.662
1.652
1.652
1.652
1.652
1.637
1.628
1.642
1.628
1.623
1.647
1.647
1.672
1.662
1.652
1.642
1.623
1.618
1.623
1.642
1.657
1.647
1.647
1.628
1.632
1.603
1.608
1.642
1.657
1.632
1.628
1.632
1.608
1.613
1.618
1.632
1.637
1.608
1.608
1.632
1.598
1.618
1.613
1.623
1.608
1.613
1.593
1.613
1.588
1.618
1.584
1.613
1.603
1.632
1.623
1.613
1.593
1.608
1.588
1.623
1.603
1.608
1.608
1.598
1.603
1.579
1.564
1.598
1.603
1.598
1.603
1.588
1.603
1.584
1.588
1.593
1.584
1.613
1.603
1.584
1.598
1.574
1.584
1.584
1.588
1.569
1.584
1.603
1.588
1.564
1.564
1.574
1.569
1.574
1.603
1.593
1.618
1.569
1.564
1.559
1.564
1.574
1.579
1.574
1.579
1.559
1.554
1.584
1.554
1.584
1.549
1.564
1.579
1.564
1.564
1.559
1.544
1.554
1.544
1.554
1.564
1.564
1.559
1.593
1.549
1.554
1.549
1.559
1.544
1.574
1.535
1.544
1.559
1.554
1.569
1.564
1.554
1.569
1.540
1.540
1.559
1.535
1.535
1.544
1.544
1.549
1.535
1.554
1.544
1.530
1.549
1.540
1.525
1.540
1.540
1.549
1.540
1.540
1.525
1.520
1.525
1.530
1.535
1.544
1.530
1.525
1.520
1.549
1.574
1.530
1.530
1.549
1.549
1.540
1.549
1.564
1.549
1.549
1.564
1.559
1.574
1.564
1.579
1.584
1.593
1.608
1.588
1.632
1.598
1.593
1.603
1.613
1.603
1.652
1.628
1.642
1.647
1.652
1.672
1.637
1.642
1.647
1.652
1.672
1.657
1.667
1.691
1.696
1.672
1.662
1.672
1.696
1.681
1.676
1.686
1.691
1.696
1.686
1.672
1.711
1.676
1.686
1.691
1.720
1.681
1.691
1.686
1.706
1.681
1.681
1.672
1.686
1.672
1.711
1.706
1.716
1.701
1.681
1.686
1.681
1.681
1.681
1.691
1.701
1.701
1.686
1.725
1.716
1.691
1.676
1.681
1.720
1.696
1.701
1.716
1.720
1.711
1.711
1.706
1.701
1.701
1.720
1.716
1.711
1.740
1.711
1.711
1.730
1.711
1.725
1.725
1.720
1.711
1.730
1.740
1.745
1.725
1.720
1.725
1.720
1.720
1.745
1.725
1.750
1.725
1.735
1.730
1.750
1.764
1.725
1.716
1.730
1.720
1.740
1.745
1.755
1.779
1.730
1.725
1.725
1.720
1.730
1.730
1.769
1.740
1.740
1.725
1.750
1.716
1.730
1.716
1.745
1.730
1.730
1.735
1.760
1.735
1.740
1.735
1.730
1.735
1.730
1.740
1.740
1.735
1.735
1.730
1.755
1.745
1.725
1.745
1.745
1.730
1.745
1.760
1.774
1.750
1.735
1.760
1.735
1.740
1.730
1.745
1.745
1.750
1.735
1.755
1.769
1.745
1.725
1.735
1.745
1.745
1.769
1.769
1.779
1.740
1.725
1.730
1.730
1.755
1.755
1.745
1.735
1.735
1.764
1.716
1.740
1.716
1.720
1.735
1.735
1.725
1.730
1.735
1.725
1.720
1.740
1.735
1.750
1.730
1.720
1.716
1.730
1.725
1.764
1.720
1.750
1.735
1.720
1.706
1.720
1.730
1.725
1.720
1.760
1.735
1.735
1.711
1.706
1.711
1.706
1.716
1.720
1.725
1.696
1.706
1.735
1.716
1.691
1.691
1.725
1.716
1.706
1.725
1.711
1.716
1.696
1.696
1.696
1.696
1.696
1.745
1.711
1.716
1.691
1.696
1.720
1.725
1.681
1.686
1.691
1.686
1.686
1.691
1.691
1.691
1.681
1.686
1.676
1.681
1.676
1.686
1.691
1.691
1.711
1.676
1.706
1.672
1.662
1.657
1.676
1.667
1.711
1.672
1.686
1.691
1.681
1.681
1.672
1.662
1.672
1.676
1.686
1.676
1.662
1.667
1.725
1.652
1.657
1.662
1.676
1.662
1.667
1.681
1.686
1.662
1.652
1.657
1.652
1.652
1.647
1.652
1.657
1.662
1.642
1.647
1.686
1.647
1.632
1.637
1.652
1.637
1.642
1.672
1.672
1.662
1.642
1.637
1.628
1.637
1.662
1.637
1.642
1.657
1.632
1.642
1.662
1.647
1.618
1.628
1.667
1.632
1.628
1.652
1.642
1.652
1.642
1.647
1.632
1.623
1.618
1.642
1.632
1.628
1.628
1.628
1.623
1.618
1.603
1.613
1.623
1.628
1.632
1.632
1.618
